time, Temp
0.000000, 0.000000
0.001000, 283.821953
0.002000, 368.390299
0.003000, 402.400910
0.004000, 415.802556
0.005000, 418.708944
0.006000, 415.561605
0.007000, 408.665911
0.008000, 399.351297
0.009000, 388.466220
0.010000, 376.585064
0.011000, 364.098732
0.012000, 351.289175
0.013000, 338.377598
0.014000, 325.543592
0.015000, 312.933073
0.016000, 300.667678
0.017000, 288.840902
0.018000, 277.519350
0.019000, 266.753341
0.020000, 256.584442
0.021000, 247.048678
0.022000, 238.167732
0.023000, 229.955026
0.024000, 222.414900
0.025000, 215.542349
0.026000, 209.327153
0.027000, 203.752786
0.028000, 198.798712
0.029000, 194.439524
0.030000, 190.647488
0.031000, 187.391872
0.032000, 184.639461
0.033000, 182.355498
0.034000, 180.503713
0.035000, 179.045970
0.036000, 177.944168
0.037000, 177.159980
0.038000, 176.653554
0.039000, 176.385227
0.040000, 176.316838
0.041000, 176.410939
0.042000, 176.629914
0.043000, 176.938857
0.044000, 177.304357
0.045000, 177.695139
0.046000, 178.083012
0.047000, 178.442508
0.048000, 178.750976
0.049000, 178.987343
0.050000, 179.133693
0.051000, 179.175553
0.052000, 179.101738
0.053000, 178.904315
0.054000, 178.578133
0.055000, 178.120876
0.056000, 177.533906
0.057000, 176.821885
0.058000, 175.991870
0.059000, 175.052882
0.060000, 174.015171
0.061000, 172.890522
0.062000, 171.690972
0.063000, 170.429009
0.064000, 169.117018
0.065000, 167.767293
0.066000, 166.392184
0.067000, 165.003803
0.068000, 163.612798
0.069000, 162.229064
0.070000, 160.861479
0.071000, 159.517417
0.072000, 158.203824
0.073000, 156.927176
0.074000, 155.692462
0.075000, 154.504757
0.076000, 153.368026
0.077000, 152.284601
0.078000, 151.256284
0.079000, 150.283814
0.080000, 149.367169
0.081000, 148.505745
0.082000, 147.698588
0.083000, 146.943635
0.084000, 146.238050
0.085000, 145.578482
0.086000, 144.960653
0.087000, 144.380568
0.088000, 143.833971
0.089000, 143.316976
0.090000, 142.825370
0.091000, 142.354715
0.092000, 141.900494
0.093000, 141.457601
0.094000, 141.020630
0.095000, 140.584716
0.096000, 140.145410
0.097000, 139.697670
0.098000, 139.237453
0.099000, 138.760676
0.100000, 138.263810
0.101000, 137.743536
0.102000, 137.196468
0.103000, 136.619431
0.104000, 136.009668
0.105000, 135.365170
0.106000, 134.684862
0.107000, 133.968345
0.108000, 133.215759
0.109000, 132.428068
0.110000, 131.606263
0.111000, 130.751984
0.112000, 129.866829
0.113000, 128.952645
0.114000, 128.011487
0.115000, 127.046020
0.116000, 126.058532
0.117000, 125.051062
0.118000, 124.025870
0.119000, 122.985550
0.120000, 121.932600
0.121000, 120.870197
0.122000, 119.801922
0.123000, 118.731371
0.124000, 117.662321
0.125000, 116.598220
0.126000, 115.542274
0.127000, 114.497051
0.128000, 113.465394
0.129000, 112.450871
0.130000, 111.457231
0.131000, 110.487813
0.132000, 109.545587
0.133000, 108.633659
0.134000, 107.754794
0.135000, 106.911047
0.136000, 106.103815
0.137000, 105.333978
0.138000, 104.602137
0.139000, 103.908007
0.140000, 103.251374
0.141000, 102.631354
0.142000, 102.046475
0.143000, 101.495162
0.144000, 100.975316
0.145000, 100.484966
0.146000, 100.021654
0.147000, 99.583057
0.148000, 99.166883
0.149000, 98.770678
0.150000, 98.391844
0.151000, 98.027478
0.152000, 97.674829
0.153000, 97.331015
0.154000, 96.993144
0.155000, 96.658705
0.156000, 96.325422
0.157000, 95.991768
0.158000, 95.656382
0.159000, 95.318145
0.160000, 94.975868
0.161000, 94.628590
0.162000, 94.275679
0.163000, 93.916371
0.164000, 93.550219
0.165000, 93.177323
0.166000, 92.797724
0.167000, 92.411764
0.168000, 92.020153
0.169000, 91.623860
0.170000, 91.224345
0.171000, 90.822969
0.172000, 90.420946
0.173000, 90.019574
0.174000, 89.620067
0.175000, 89.223925
0.176000, 88.832695
0.177000, 88.447883
0.178000, 88.070712
0.179000, 87.702051
0.180000, 87.342587
0.181000, 86.992978
0.182000, 86.653047
0.183000, 86.322488
0.184000, 86.000667
0.185000, 85.687051
0.186000, 85.381317
0.187000, 85.083002
0.188000, 84.791490
0.189000, 84.506257
0.190000, 84.226788
0.191000, 83.952769
0.192000, 83.684225
0.193000, 83.421112
0.194000, 83.163292
0.195000, 82.910635
0.196000, 82.662970
0.197000, 82.420208
0.198000, 82.182331
0.199000, 81.949238
0.200000, 81.720609
0.201000, 81.496290
0.202000, 81.275893
0.203000, 81.059030
0.204000, 80.845372
0.205000, 80.634924
0.206000, 80.427825
0.207000, 80.224209
0.208000, 80.024105
0.209000, 79.827492
0.210000, 79.634299
0.211000, 79.444232
0.212000, 79.257254
0.213000, 79.073299
0.214000, 78.892116
0.215000, 78.713307
0.216000, 78.536422
0.217000, 78.361033
0.218000, 78.186455
0.219000, 78.012193
0.220000, 77.837644
0.221000, 77.662471
0.222000, 77.486391
0.223000, 77.309193
0.224000, 77.130574
0.225000, 76.950514
0.226000, 76.769255
0.227000, 76.587185
0.228000, 76.404772
0.229000, 76.222509
0.230000, 76.040955
0.231000, 75.860165
0.232000, 75.680135
0.233000, 75.500872
0.234000, 75.322397
0.235000, 75.144757
0.236000, 74.968153
0.237000, 74.792784
0.238000, 74.618829
0.239000, 74.446507
0.240000, 74.275820
0.241000, 74.106673
0.242000, 73.939195
0.243000, 73.773689
0.244000, 73.610397
0.245000, 73.449586
0.246000, 73.291546
0.247000, 73.136405
0.248000, 72.984193
0.249000, 72.834735
0.250000, 72.688010
0.251000, 72.543892
0.252000, 72.402117
0.253000, 72.262370
0.254000, 72.124355
0.255000, 71.987891
0.256000, 71.852578
0.257000, 71.718041
0.258000, 71.583833
0.259000, 71.449824
0.260000, 71.315822
0.261000, 71.181706
0.262000, 71.047381
0.263000, 70.912854
0.264000, 70.778070
0.265000, 70.643032
0.266000, 70.507602
0.267000, 70.371807
0.268000, 70.235506
0.269000, 70.098740
0.270000, 69.961420
0.271000, 69.823494
0.272000, 69.684869
0.273000, 69.545377
0.274000, 69.404646
0.275000, 69.262325
0.276000, 69.118218
0.277000, 68.972029
0.278000, 68.823475
0.279000, 68.672317
0.280000, 68.518480
0.281000, 68.361923
0.282000, 68.202559
0.283000, 68.040275
0.284000, 67.875061
0.285000, 67.707206
0.286000, 67.536959
0.287000, 67.364432
0.288000, 67.189784
0.289000, 67.013003
0.290000, 66.834119
0.291000, 66.653305
0.292000, 66.470714
0.293000, 66.286435
0.294000, 66.100625
0.295000, 65.913361
0.296000, 65.724610
0.297000, 65.534468
0.298000, 65.342999
0.299000, 65.150301
0.300000, 64.956551
0.301000, 64.761953
0.302000, 64.566609
0.303000, 64.370658
0.304000, 64.174223
0.305000, 63.977070
0.306000, 63.778934
0.307000, 63.579774
0.308000, 63.379469
0.309000, 63.177868
0.310000, 62.974997
0.311000, 62.770925
0.312000, 62.565707
0.313000, 62.359430
0.314000, 62.152171
0.315000, 61.944001
0.316000, 61.734858
0.317000, 61.524558
0.318000, 61.313324
0.319000, 61.101471
0.320000, 60.889231
0.321000, 60.676745
0.322000, 60.463975
0.323000, 60.251184
0.324000, 60.038720
0.325000, 59.827060
0.326000, 59.616689
0.327000, 59.408064
0.328000, 59.201603
0.329000, 58.997521
0.330000, 58.796275
0.331000, 58.598243
0.332000, 58.403761
0.333000, 58.213073
0.334000, 58.026461
0.335000, 57.844058
0.336000, 57.665904
0.337000, 57.492197
0.338000, 57.323273
0.339000, 57.159302
0.340000, 57.000553
0.341000, 56.847649
0.342000, 56.701237
0.343000, 56.562009
0.344000, 56.430625
0.345000, 56.307633
0.346000, 56.193548
0.347000, 56.088704
0.348000, 55.993262
0.349000, 55.907211
0.350000, 55.830360
0.351000, 55.762456
0.352000, 55.703065
0.353000, 55.651762
0.354000, 55.607889
0.355000, 55.570675
0.356000, 55.539406
0.357000, 55.513368
0.358000, 55.491948
0.359000, 55.474445
0.360000, 55.460155
0.361000, 55.448239
0.362000, 55.437722
0.363000, 55.427690
0.364000, 55.417272
0.365000, 55.405597
0.366000, 55.392027
0.367000, 55.376170
0.368000, 55.357570
0.369000, 55.335900
0.370000, 55.310937
0.371000, 55.282398
0.372000, 55.250062
0.373000, 55.213837
0.374000, 55.173826
0.375000, 55.130050
0.376000, 55.082477
0.377000, 55.031047
0.378000, 54.975776
0.379000, 54.916739
0.380000, 54.853862
0.381000, 54.787174
0.382000, 54.716837
0.383000, 54.642975
0.384000, 54.565772
0.385000, 54.485354
0.386000, 54.401911
0.387000, 54.315609
0.388000, 54.226634
0.389000, 54.135112
0.390000, 54.041081
0.391000, 53.944606
0.392000, 53.845657
0.393000, 53.744148
0.394000, 53.640132
0.395000, 53.533647
0.396000, 53.424706
0.397000, 53.313359
0.398000, 53.199689
0.399000, 53.083836
0.400000, 52.965998
0.401000, 52.846395
0.402000, 52.725362
0.403000, 52.603145
0.404000, 52.480113
0.405000, 52.356621
0.406000, 52.233020
0.407000, 52.109659
0.408000, 51.986846
0.409000, 51.864878
0.410000, 51.743959
0.411000, 51.624249
0.412000, 51.505829
0.413000, 51.388646
0.414000, 51.272640
0.415000, 51.157891
0.416000, 51.044535
0.417000, 50.932469
0.418000, 50.821715
0.419000, 50.712168
0.420000, 50.603690
0.421000, 50.496160
0.422000, 50.389483
0.423000, 50.283596
0.424000, 50.178521
0.425000, 50.074386
0.426000, 49.971210
0.427000, 49.868934
0.428000, 49.767486
0.429000, 49.666897
0.430000, 49.567180
0.431000, 49.468399
0.432000, 49.370636
0.433000, 49.274005
0.434000, 49.178554
0.435000, 49.084360
0.436000, 48.991553
0.437000, 48.900152
0.438000, 48.810106
0.439000, 48.721486
0.440000, 48.634378
0.441000, 48.548767
0.442000, 48.464608
0.443000, 48.381771
0.444000, 48.300071
0.445000, 48.219328
0.446000, 48.139361
0.447000, 48.059979
0.448000, 47.981004
0.449000, 47.902406
0.450000, 47.824279
0.451000, 47.746785
0.452000, 47.670032
0.453000, 47.594144
0.454000, 47.519181
0.455000, 47.445279
0.456000, 47.372634
0.457000, 47.301536
0.458000, 47.232237
0.459000, 47.164923
0.460000, 47.099766
0.461000, 47.036875
0.462000, 46.976332
0.463000, 46.918036
0.464000, 46.861804
0.465000, 46.807368
0.466000, 46.754422
0.467000, 46.702690
0.468000, 46.651844
0.469000, 46.601623
0.470000, 46.551870
0.471000, 46.502397
0.472000, 46.453092
0.473000, 46.403855
0.474000, 46.354565
0.475000, 46.305105
0.476000, 46.255426
0.477000, 46.205548
0.478000, 46.155393
0.479000, 46.104814
0.480000, 46.053632
0.481000, 46.001652
0.482000, 45.948729
0.483000, 45.894690
0.484000, 45.839232
0.485000, 45.782135
0.486000, 45.723048
0.487000, 45.661661
0.488000, 45.597663
0.489000, 45.530838
0.490000, 45.461072
0.491000, 45.388315
0.492000, 45.312631
0.493000, 45.234351
0.494000, 45.153950
0.495000, 45.071867
0.496000, 44.988597
0.497000, 44.904650
0.498000, 44.820473
0.499000, 44.736475
0.500000, 44.652943
0.501000, 44.570074
0.502000, 44.488104
0.503000, 44.407223
0.504000, 44.327522
0.505000, 44.248972
0.506000, 44.171489
0.507000, 44.094973
0.508000, 44.019388
0.509000, 43.944657
0.510000, 43.870715
0.511000, 43.797542
0.512000, 43.725041
0.513000, 43.653142
0.514000, 43.581685
0.515000, 43.510644
0.516000, 43.440132
0.517000, 43.370311
0.518000, 43.301273
0.519000, 43.233061
0.520000, 43.165688
0.521000, 43.099092
0.522000, 43.033130
0.523000, 42.967674
0.524000, 42.902590
0.525000, 42.837803
0.526000, 42.773277
0.527000, 42.708910
0.528000, 42.644555
0.529000, 42.580169
0.530000, 42.515729
0.531000, 42.451225
0.532000, 42.386662
0.533000, 42.322061
0.534000, 42.257404
0.535000, 42.192766
0.536000, 42.128190
0.537000, 42.063726
0.538000, 41.999537
0.539000, 41.935679
0.540000, 41.872191
0.541000, 41.809070
0.542000, 41.746211
0.543000, 41.683590
0.544000, 41.621203
0.545000, 41.559146
0.546000, 41.497387
0.547000, 41.435895
0.548000, 41.374823
0.549000, 41.314311
0.550000, 41.254597
0.551000, 41.195855
0.552000, 41.138265
0.553000, 41.081977
0.554000, 41.027052
0.555000, 40.973539
0.556000, 40.921418
0.557000, 40.870539
0.558000, 40.820708
0.559000, 40.771783
0.560000, 40.723575
0.561000, 40.675873
0.562000, 40.628555
0.563000, 40.581519
0.564000, 40.534673
0.565000, 40.487960
0.566000, 40.441427
0.567000, 40.395126
0.568000, 40.349036
0.569000, 40.303148
0.570000, 40.257516
0.571000, 40.212186
0.572000, 40.167177
0.573000, 40.122467
0.574000, 40.077985
0.575000, 40.033666
0.576000, 39.989514
0.577000, 39.945570
0.578000, 39.901807
0.579000, 39.858168
0.580000, 39.814626
0.581000, 39.771062
0.582000, 39.727407
0.583000, 39.683515
0.584000, 39.639315
0.585000, 39.594758
0.586000, 39.550002
0.587000, 39.505198
0.588000, 39.460452
0.589000, 39.415912
0.590000, 39.371733
0.591000, 39.328058
0.592000, 39.285073
0.593000, 39.243046
0.594000, 39.202176
0.595000, 39.162643
0.596000, 39.124636
0.597000, 39.088280
0.598000, 39.053680
0.599000, 39.020905
0.600000, 38.989964
0.601000, 38.960877
0.602000, 38.933652
0.603000, 38.908332
0.604000, 38.884916
0.605000, 38.863459
0.606000, 38.844044
0.607000, 38.826831
0.608000, 38.811970
0.609000, 38.799525
0.610000, 38.789395
0.611000, 38.781387
0.612000, 38.775292
0.613000, 38.770940
0.614000, 38.768186
0.615000, 38.766852
0.616000, 38.766694
0.617000, 38.767416
0.618000, 38.768613
0.619000, 38.769888
0.620000, 38.770809
0.621000, 38.770956
0.622000, 38.769921
0.623000, 38.767325
0.624000, 38.762748
0.625000, 38.755893
0.626000, 38.746453
0.627000, 38.734163
0.628000, 38.718781
0.629000, 38.700080
0.630000, 38.677848
0.631000, 38.651968
0.632000, 38.622323
0.633000, 38.588851
0.634000, 38.551536
0.635000, 38.510564
0.636000, 38.466252
0.637000, 38.418929
0.638000, 38.368899
0.639000, 38.316469
0.640000, 38.261805
0.641000, 38.205099
0.642000, 38.146421
0.643000, 38.085850
0.644000, 38.023447
0.645000, 37.959233
0.646000, 37.893281
0.647000, 37.825602
0.648000, 37.756172
0.649000, 37.684885
0.650000, 37.611715
0.651000, 37.536589
0.652000, 37.459549
0.653000, 37.380638
0.654000, 37.299882
0.655000, 37.217290
0.656000, 37.132890
0.657000, 37.046674
0.658000, 36.958786
0.659000, 36.869424
0.660000, 36.778849
0.661000, 36.687356
0.662000, 36.595242
0.663000, 36.502716
0.664000, 36.409978
0.665000, 36.317252
0.666000, 36.224710
0.667000, 36.132488
0.668000, 36.040727
0.669000, 35.949627
0.670000, 35.859351
0.671000, 35.770001
0.672000, 35.681638
0.673000, 35.594280
0.674000, 35.507946
0.675000, 35.422651
0.676000, 35.338425
0.677000, 35.255310
0.678000, 35.173325
0.679000, 35.092573
0.680000, 35.013153
0.681000, 34.935186
0.682000, 34.858770
0.683000, 34.784098
0.684000, 34.711307
0.685000, 34.640389
0.686000, 34.571195
0.687000, 34.503564
0.688000, 34.437326
0.689000, 34.372254
0.690000, 34.308241
0.691000, 34.245128
0.692000, 34.182795
0.693000, 34.121147
0.694000, 34.059976
0.695000, 33.999079
0.696000, 33.938200
0.697000, 33.877021
0.698000, 33.815302
0.699000, 33.752838
0.700000, 33.689451
0.701000, 33.625008
0.702000, 33.559465
0.703000, 33.492778
0.704000, 33.424895
0.705000, 33.355792
0.706000, 33.285501
0.707000, 33.213936
0.708000, 33.141046
0.709000, 33.066749
0.710000, 32.991069
0.711000, 32.914106
0.712000, 32.836068
0.713000, 32.757223
0.714000, 32.677763
0.715000, 32.597815
0.716000, 32.517454
0.717000, 32.436788
0.718000, 32.355946
0.719000, 32.275181
0.720000, 32.194845
0.721000, 32.115267
0.722000, 32.036764
0.723000, 31.959752
0.724000, 31.884618
0.725000, 31.811740
0.726000, 31.741343
0.727000, 31.673602
0.728000, 31.608506
0.729000, 31.546054
0.730000, 31.486218
0.731000, 31.428958
0.732000, 31.374262
0.733000, 31.322114
0.734000, 31.272524
0.735000, 31.225572
0.736000, 31.181362
0.737000, 31.139931
0.738000, 31.101260
0.739000, 31.065306
0.740000, 31.031902
0.741000, 31.000864
0.742000, 30.971938
0.743000, 30.944923
0.744000, 30.919614
0.745000, 30.895793
0.746000, 30.873271
0.747000, 30.851865
0.748000, 30.831368
0.749000, 30.811567
0.750000, 30.792303
0.751000, 30.773304
0.752000, 30.754303
0.753000, 30.735068
0.754000, 30.715431
0.755000, 30.695137
0.756000, 30.673920
0.757000, 30.651536
0.758000, 30.627710
0.759000, 30.602095
0.760000, 30.574337
0.761000, 30.544098
0.762000, 30.511183
0.763000, 30.475519
0.764000, 30.437015
0.765000, 30.395614
0.766000, 30.351311
0.767000, 30.304148
0.768000, 30.254219
0.769000, 30.201610
0.770000, 30.146442
0.771000, 30.088851
0.772000, 30.029039
0.773000, 29.967166
0.774000, 29.903484
0.775000, 29.838347
0.776000, 29.772076
0.777000, 29.705032
0.778000, 29.637569
0.779000, 29.570000
0.780000, 29.502648
0.781000, 29.435903
0.782000, 29.370056
0.783000, 29.305317
0.784000, 29.241906
0.785000, 29.180022
0.786000, 29.119778
0.787000, 29.061399
0.788000, 29.005112
0.789000, 28.951150
0.790000, 28.899708
0.791000, 28.850982
0.792000, 28.805067
0.793000, 28.762022
0.794000, 28.721884
0.795000, 28.684691
0.796000, 28.650428
0.797000, 28.619147
0.798000, 28.590826
0.799000, 28.565369
0.800000, 28.542623
0.801000, 28.522423
0.802000, 28.504478
0.803000, 28.488534
0.804000, 28.474293
0.805000, 28.461386
0.806000, 28.449417
0.807000, 28.437952
0.808000, 28.426563
0.809000, 28.414884
0.810000, 28.402567
0.811000, 28.389344
0.812000, 28.374939
0.813000, 28.359162
0.814000, 28.341822
0.815000, 28.322731
0.816000, 28.301743
0.817000, 28.278802
0.818000, 28.253836
0.819000, 28.226791
0.820000, 28.197669
0.821000, 28.166557
0.822000, 28.133638
0.823000, 28.099163
0.824000, 28.063360
0.825000, 28.026440
0.826000, 27.988701
0.827000, 27.950466
0.828000, 27.912087
0.829000, 27.873864
0.830000, 27.836021
0.831000, 27.798839
0.832000, 27.762570
0.833000, 27.727485
0.834000, 27.693835
0.835000, 27.661884
0.836000, 27.631842
0.837000, 27.603889
0.838000, 27.578090
0.839000, 27.554448
0.840000, 27.532915
0.841000, 27.513402
0.842000, 27.495715
0.843000, 27.479582
0.844000, 27.464665
0.845000, 27.450657
0.846000, 27.437265
0.847000, 27.424236
0.848000, 27.411321
0.849000, 27.398313
0.850000, 27.384893
0.851000, 27.370731
0.852000, 27.355456
0.853000, 27.338691
0.854000, 27.320039
0.855000, 27.299108
0.856000, 27.275483
0.857000, 27.248821
0.858000, 27.218882
0.859000, 27.185454
0.860000, 27.148473
0.861000, 27.107930
0.862000, 27.063898
0.863000, 27.016493
0.864000, 26.965797
0.865000, 26.911968
0.866000, 26.855233
0.867000, 26.795893
0.868000, 26.734275
0.869000, 26.670755
0.870000, 26.605750
0.871000, 26.539715
0.872000, 26.473102
0.873000, 26.406368
0.874000, 26.339960
0.875000, 26.274241
0.876000, 26.209535
0.877000, 26.146134
0.878000, 26.084345
0.879000, 26.024400
0.880000, 25.966475
0.881000, 25.910612
0.882000, 25.856903
0.883000, 25.805434
0.884000, 25.756295
0.885000, 25.709585
0.886000, 25.665362
0.887000, 25.623576
0.888000, 25.584077
0.889000, 25.546712
0.890000, 25.511347
0.891000, 25.477851
0.892000, 25.446044
0.893000, 25.415734
0.894000, 25.386712
0.895000, 25.358787
0.896000, 25.331770
0.897000, 25.305509
0.898000, 25.279878
0.899000, 25.254788
0.900000, 25.230107
0.901000, 25.205748
0.902000, 25.181640
0.903000, 25.157744
0.904000, 25.134031
0.905000, 25.110521
0.906000, 25.087176
0.907000, 25.063937
0.908000, 25.040706
0.909000, 25.017395
0.910000, 24.993917
0.911000, 24.970209
0.912000, 24.946319
0.913000, 24.922329
0.914000, 24.898360
0.915000, 24.874537
0.916000, 24.850986
0.917000, 24.827870
0.918000, 24.805319
0.919000, 24.783518
0.920000, 24.762556
0.921000, 24.742489
0.922000, 24.723439
0.923000, 24.705511
0.924000, 24.688740
0.925000, 24.673121
0.926000, 24.658650
0.927000, 24.645309
0.928000, 24.633002
0.929000, 24.621675
0.930000, 24.611334
0.931000, 24.602020
0.932000, 24.593788
0.933000, 24.586690
0.934000, 24.580795
0.935000, 24.576129
0.936000, 24.572695
0.937000, 24.570474
0.938000, 24.569401
0.939000, 24.569373
0.940000, 24.570291
0.941000, 24.572019
0.942000, 24.574432
0.943000, 24.577399
0.944000, 24.580749
0.945000, 24.584249
0.946000, 24.587647
0.947000, 24.590628
0.948000, 24.592969
0.949000, 24.594460
0.950000, 24.594871
0.951000, 24.593960
0.952000, 24.591540
0.953000, 24.587480
0.954000, 24.581699
0.955000, 24.574118
0.956000, 24.564731
0.957000, 24.553558
0.958000, 24.540661
0.959000, 24.526065
0.960000, 24.509813
0.961000, 24.491918
0.962000, 24.472420
0.963000, 24.451390
0.964000, 24.428894
0.965000, 24.404979
0.966000, 24.379698
0.967000, 24.353073
0.968000, 24.325149
0.969000, 24.296015
0.970000, 24.265821
0.971000, 24.234717
0.972000, 24.202886
0.973000, 24.170493
0.974000, 24.137743
0.975000, 24.104819
0.976000, 24.071840
0.977000, 24.038909
0.978000, 24.006148
0.979000, 23.973692
0.980000, 23.941675
0.981000, 23.910106
0.982000, 23.879028
0.983000, 23.848455
0.984000, 23.818397
0.985000, 23.788840
0.986000, 23.759743
0.987000, 23.731036
0.988000, 23.702635
0.989000, 23.674459
0.990000, 23.646478
0.991000, 23.618644
