time, Temp
0.000000, 0.000000
0.001000, 3.634725
0.002000, 23.762213
0.003000, 52.308184
0.004000, 86.713307
0.005000, 125.497526
0.006000, 167.556007
0.007000, 211.972213
0.008000, 257.954508
0.009000, 304.811418
0.010000, 351.940314
0.011000, 398.817672
0.012000, 444.990132
0.013000, 490.069978
0.014000, 533.732753
0.015000, 575.713983
0.016000, 615.804697
0.017000, 653.844969
0.018000, 689.716180
0.019000, 723.334575
0.020000, 754.646561
0.021000, 783.624858
0.022000, 810.264886
0.023000, 834.580998
0.024000, 856.602936
0.025000, 876.373127
0.026000, 893.944619
0.027000, 909.379511
0.028000, 922.747890
0.029000, 934.127597
0.030000, 943.604385
0.031000, 951.271773
0.032000, 957.230570
0.033000, 961.588325
0.034000, 964.458787
0.035000, 965.961237
0.036000, 966.219621
0.037000, 965.361650
0.038000, 963.517772
0.039000, 960.819903
0.040000, 957.400073
0.041000, 953.389042
0.042000, 948.914825
0.043000, 944.101183
0.044000, 939.066151
0.045000, 933.920636
0.046000, 928.767141
0.047000, 923.698614
0.048000, 918.797477
0.049000, 914.134888
0.050000, 909.770250
0.051000, 905.750956
0.052000, 902.112476
0.053000, 898.878693
0.054000, 896.062403
0.055000, 893.665986
0.056000, 891.682317
0.057000, 890.095908
0.058000, 888.884130
0.059000, 888.018453
0.060000, 887.465673
0.061000, 887.189137
0.062000, 887.149925
0.063000, 887.307902
0.064000, 887.622725
0.065000, 888.054773
0.066000, 888.565977
0.067000, 889.120478
0.068000, 889.685142
0.069000, 890.229903
0.070000, 890.728024
0.071000, 891.156309
0.072000, 891.495196
0.073000, 891.728705
0.074000, 891.844340
0.075000, 891.833035
0.076000, 891.689067
0.077000, 891.409818
0.078000, 890.995485
0.079000, 890.448776
0.080000, 889.774526
0.081000, 888.979340
0.082000, 888.071219
0.083000, 887.059238
0.084000, 885.953320
0.085000, 884.764056
0.086000, 883.502583
0.087000, 882.180457
0.088000, 880.809558
0.089000, 879.402000
0.090000, 877.970155
0.091000, 876.526708
0.092000, 875.084695
0.093000, 873.657493
0.094000, 872.258764
0.095000, 870.902336
0.096000, 869.602055
0.097000, 868.371573
0.098000, 867.224088
0.099000, 866.172056
0.100000, 865.226930
0.101000, 864.398931
0.102000, 863.696847
0.103000, 863.127852
0.104000, 862.697381
0.105000, 862.409077
0.106000, 862.264798
0.107000, 862.264671
0.108000, 862.407193
0.109000, 862.689408
0.110000, 863.107069
0.111000, 863.654786
0.112000, 864.326178
0.113000, 865.113975
0.114000, 866.010089
0.115000, 867.005721
0.116000, 868.091522
0.117000, 869.257722
0.118000, 870.494319
0.119000, 871.791291
0.120000, 873.138719
0.121000, 874.526868
0.122000, 875.946245
0.123000, 877.387624
0.124000, 878.842039
0.125000, 880.300755
0.126000, 881.755259
0.127000, 883.197207
0.128000, 884.618392
0.129000, 886.010765
0.130000, 887.366453
0.131000, 888.677849
0.132000, 889.937749
0.133000, 891.139479
0.134000, 892.277013
0.135000, 893.345135
0.136000, 894.339588
0.137000, 895.257178
0.138000, 896.095856
0.139000, 896.854831
0.140000, 897.534659
0.141000, 898.137268
0.142000, 898.665939
0.143000, 899.125222
0.144000, 899.520756
0.145000, 899.859109
0.146000, 900.147603
0.147000, 900.394136
0.148000, 900.606985
0.149000, 900.794587
0.150000, 900.965324
0.151000, 901.127299
0.152000, 901.288134
0.153000, 901.454809
0.154000, 901.633595
0.155000, 901.830041
0.156000, 902.048969
0.157000, 902.294408
0.158000, 902.569540
0.159000, 902.876723
0.160000, 903.217494
0.161000, 903.592608
0.162000, 904.002105
0.163000, 904.445362
0.164000, 904.921132
0.165000, 905.427601
0.166000, 905.962448
0.167000, 906.522869
0.168000, 907.105618
0.169000, 907.707062
0.170000, 908.323251
0.171000, 908.949990
0.172000, 909.582900
0.173000, 910.217438
0.174000, 910.848965
0.175000, 911.472858
0.176000, 912.084623
0.177000, 912.680014
0.178000, 913.255187
0.179000, 913.806823
0.180000, 914.332225
0.181000, 914.829369
0.182000, 915.296978
0.183000, 915.734521
0.184000, 916.142144
0.185000, 916.520621
0.186000, 916.871296
0.187000, 917.196006
0.188000, 917.496975
0.189000, 917.776716
0.190000, 918.037946
0.191000, 918.283485
0.192000, 918.516139
0.193000, 918.738556
0.194000, 918.953095
0.195000, 919.161742
0.196000, 919.366034
0.197000, 919.567038
0.198000, 919.765378
0.199000, 919.961284
0.200000, 920.154656
0.201000, 920.345140
0.202000, 920.532206
0.203000, 920.715210
0.204000, 920.893441
0.205000, 921.066185
0.206000, 921.232793
0.207000, 921.392733
0.208000, 921.545637
0.209000, 921.691341
0.210000, 921.829939
0.211000, 921.961806
0.212000, 922.087603
0.213000, 922.208267
0.214000, 922.324984
0.215000, 922.439150
0.216000, 922.552337
0.217000, 922.666277
0.218000, 922.782840
0.219000, 922.904010
0.220000, 923.031834
0.221000, 923.168345
0.222000, 923.315490
0.223000, 923.475060
0.224000, 923.648642
0.225000, 923.837588
0.226000, 924.042984
0.227000, 924.265635
0.228000, 924.506038
0.229000, 924.764354
0.230000, 925.040402
0.231000, 925.333674
0.232000, 925.643359
0.233000, 925.968374
0.234000, 926.307413
0.235000, 926.658993
0.236000, 927.021518
0.237000, 927.393347
0.238000, 927.772846
0.239000, 928.158445
0.240000, 928.548693
0.241000, 928.942282
0.242000, 929.338073
0.243000, 929.735089
0.244000, 930.132516
0.245000, 930.529700
0.246000, 930.926165
0.247000, 931.321591
0.248000, 931.715776
0.249000, 932.108572
0.250000, 932.499835
0.251000, 932.889366
0.252000, 933.276855
0.253000, 933.661844
0.254000, 934.043708
0.255000, 934.421647
0.256000, 934.794694
0.257000, 935.161738
0.258000, 935.521567
0.259000, 935.872903
0.260000, 936.214454
0.261000, 936.545005
0.262000, 936.863487
0.263000, 937.169031
0.264000, 937.460986
0.265000, 937.738953
0.266000, 938.002822
0.267000, 938.252797
0.268000, 938.489421
0.269000, 938.713557
0.270000, 938.926360
0.271000, 939.129231
0.272000, 939.323790
0.273000, 939.511819
0.274000, 939.695207
0.275000, 939.875898
0.276000, 940.055849
0.277000, 940.236961
0.278000, 940.420983
0.279000, 940.609448
0.280000, 940.803629
0.281000, 941.004519
0.282000, 941.212821
0.283000, 941.428937
0.284000, 941.652972
0.285000, 941.884743
0.286000, 942.123799
0.287000, 942.369458
0.288000, 942.620860
0.289000, 942.877017
0.290000, 943.136870
0.291000, 943.399369
0.292000, 943.663534
0.293000, 943.928517
0.294000, 944.193659
0.295000, 944.458526
0.296000, 944.722908
0.297000, 944.986818
0.298000, 945.250489
0.299000, 945.514380
0.300000, 945.779173
0.301000, 946.045748
0.302000, 946.315148
0.303000, 946.588532
0.304000, 946.867124
0.305000, 947.152153
0.306000, 947.444802
0.307000, 947.746153
0.308000, 948.057153
0.309000, 948.378566
0.310000, 948.710946
0.311000, 949.054639
0.312000, 949.409793
0.313000, 949.776359
0.314000, 950.154099
0.315000, 950.542593
0.316000, 950.941251
0.317000, 951.349349
0.318000, 951.766048
0.319000, 952.190409
0.320000, 952.621415
0.321000, 953.057990
0.322000, 953.499010
0.323000, 953.943323
0.324000, 954.389751
0.325000, 954.837071
0.326000, 955.284001
0.327000, 955.729199
0.328000, 956.171261
0.329000, 956.608734
0.330000, 957.040107
0.331000, 957.463799
0.332000, 957.878168
0.333000, 958.281545
0.334000, 958.672292
0.335000, 959.048856
0.336000, 959.409823
0.337000, 959.753962
0.338000, 960.080258
0.339000, 960.387919
0.340000, 960.676378
0.341000, 960.945286
0.342000, 961.194511
0.343000, 961.424108
0.344000, 961.634291
0.345000, 961.825400
0.346000, 961.997881
0.347000, 962.152272
0.348000, 962.289186
0.349000, 962.409297
0.350000, 962.513343
0.351000, 962.602133
0.352000, 962.676565
0.353000, 962.737644
0.354000, 962.786493
0.355000, 962.824369
0.356000, 962.852657
0.357000, 962.872860
0.358000, 962.886565
0.359000, 962.895397
0.360000, 962.900989
0.361000, 962.904962
0.362000, 962.908910
0.363000, 962.914385
0.364000, 962.922874
0.365000, 962.935805
0.366000, 962.954531
0.367000, 962.980328
0.368000, 963.014370
0.369000, 963.057713
0.370000, 963.111293
0.371000, 963.175907
0.372000, 963.252197
0.373000, 963.340633
0.374000, 963.441513
0.375000, 963.554939
0.376000, 963.680807
0.377000, 963.818828
0.378000, 963.968542
0.379000, 964.129350
0.380000, 964.300534
0.381000, 964.481269
0.382000, 964.670649
0.383000, 964.867721
0.384000, 965.071512
0.385000, 965.281057
0.386000, 965.495435
0.387000, 965.713774
0.388000, 965.935247
0.389000, 966.159077
0.390000, 966.384542
0.391000, 966.610974
0.392000, 966.837759
0.393000, 967.064331
0.394000, 967.290173
0.395000, 967.514821
0.396000, 967.737878
0.397000, 967.959024
0.398000, 968.178031
0.399000, 968.394761
0.400000, 968.609179
0.401000, 968.821341
0.402000, 969.031385
0.403000, 969.239535
0.404000, 969.446111
0.405000, 969.651522
0.406000, 969.856261
0.407000, 970.060884
0.408000, 970.265976
0.409000, 970.472107
0.410000, 970.679808
0.411000, 970.889538
0.412000, 971.101651
0.413000, 971.316374
0.414000, 971.533795
0.415000, 971.753867
0.416000, 971.976403
0.417000, 972.201072
0.418000, 972.427409
0.419000, 972.654819
0.420000, 972.882612
0.421000, 973.110044
0.422000, 973.336366
0.423000, 973.560872
0.424000, 973.782923
0.425000, 974.001973
0.426000, 974.217596
0.427000, 974.429482
0.428000, 974.637451
0.429000, 974.841448
0.430000, 975.041541
0.431000, 975.237888
0.432000, 975.430719
0.433000, 975.620311
0.434000, 975.806964
0.435000, 975.990989
0.436000, 976.172695
0.437000, 976.352365
0.438000, 976.530244
0.439000, 976.706502
0.440000, 976.881224
0.441000, 977.054407
0.442000, 977.225963
0.443000, 977.395728
0.444000, 977.563466
0.445000, 977.728890
0.446000, 977.891679
0.447000, 978.051490
0.448000, 978.207982
0.449000, 978.360822
0.450000, 978.509677
0.451000, 978.654212
0.452000, 978.794083
0.453000, 978.928937
0.454000, 979.058424
0.455000, 979.182211
0.456000, 979.300010
0.457000, 979.411600
0.458000, 979.516843
0.459000, 979.615722
0.460000, 979.708347
0.461000, 979.794969
0.462000, 979.875971
0.463000, 979.951846
0.464000, 980.023175
0.465000, 980.090614
0.466000, 980.154875
0.467000, 980.216704
0.468000, 980.276875
0.469000, 980.336165
0.470000, 980.395352
0.471000, 980.455213
0.472000, 980.516525
0.473000, 980.580060
0.474000, 980.646584
0.475000, 980.716868
0.476000, 980.791672
0.477000, 980.871732
0.478000, 980.957746
0.479000, 981.050356
0.480000, 981.150119
0.481000, 981.257478
0.482000, 981.372747
0.483000, 981.496097
0.484000, 981.627537
0.485000, 981.766900
0.486000, 981.913837
0.487000, 982.067824
0.488000, 982.228174
0.489000, 982.394066
0.490000, 982.564583
0.491000, 982.738755
0.492000, 982.915587
0.493000, 983.094093
0.494000, 983.273337
0.495000, 983.452467
0.496000, 983.630755
0.497000, 983.807607
0.498000, 983.982576
0.499000, 984.155362
0.500000, 984.325819
0.501000, 984.493953
0.502000, 984.659903
0.503000, 984.823898
0.504000, 984.986222
0.505000, 985.147193
0.506000, 985.307145
0.507000, 985.466408
0.508000, 985.625295
0.509000, 985.784088
0.510000, 985.943014
0.511000, 986.102232
0.512000, 986.261837
0.513000, 986.421884
0.514000, 986.582401
0.515000, 986.743397
0.516000, 986.904884
0.517000, 987.066880
0.518000, 987.229425
0.519000, 987.392585
0.520000, 987.556468
0.521000, 987.721222
0.522000, 987.887028
0.523000, 988.054094
0.524000, 988.222630
0.525000, 988.392836
0.526000, 988.564882
0.527000, 988.738905
0.528000, 988.914992
0.529000, 989.093160
0.530000, 989.273343
0.531000, 989.455391
0.532000, 989.639068
0.533000, 989.824045
0.534000, 990.009895
0.535000, 990.196112
0.536000, 990.382123
0.537000, 990.567309
0.538000, 990.751029
0.539000, 990.932649
0.540000, 991.111564
0.541000, 991.287229
0.542000, 991.459186
0.543000, 991.627066
0.544000, 991.790599
0.545000, 991.949599
0.546000, 992.103960
0.547000, 992.253662
0.548000, 992.398783
0.549000, 992.539483
0.550000, 992.675975
0.551000, 992.808503
0.552000, 992.937323
0.553000, 993.062701
0.554000, 993.184902
0.555000, 993.304177
0.556000, 993.420753
0.557000, 993.534820
0.558000, 993.646521
0.559000, 993.755962
0.560000, 993.863213
0.561000, 993.968328
0.562000, 994.071350
0.563000, 994.172332
0.564000, 994.271339
0.565000, 994.368451
0.566000, 994.463763
0.567000, 994.557392
0.568000, 994.649477
0.569000, 994.740171
0.570000, 994.829636
0.571000, 994.918036
0.572000, 995.005535
0.573000, 995.092284
0.574000, 995.178425
0.575000, 995.264081
0.576000, 995.349349
0.577000, 995.434285
0.578000, 995.518906
0.579000, 995.603186
0.580000, 995.687054
0.581000, 995.770402
0.582000, 995.853068
0.583000, 995.934844
0.584000, 996.015485
0.585000, 996.094725
0.586000, 996.172291
0.587000, 996.247921
0.588000, 996.321361
0.589000, 996.392363
0.590000, 996.460674
0.591000, 996.526062
0.592000, 996.588322
0.593000, 996.647294
0.594000, 996.702856
0.595000, 996.754921
0.596000, 996.803431
0.597000, 996.848359
0.598000, 996.889700
0.599000, 996.927458
0.600000, 996.961637
0.601000, 996.992244
0.602000, 997.019310
0.603000, 997.042882
0.604000, 997.063025
0.605000, 997.079823
0.606000, 997.093380
0.607000, 997.103812
0.608000, 997.111249
0.609000, 997.115843
0.610000, 997.117771
0.611000, 997.117250
0.612000, 997.114547
0.613000, 997.109982
0.614000, 997.103936
0.615000, 997.096845
0.616000, 997.089208
0.617000, 997.081573
0.618000, 997.074525
0.619000, 997.068683
0.620000, 997.064685
0.621000, 997.063183
0.622000, 997.064830
0.623000, 997.070270
0.624000, 997.080131
0.625000, 997.095002
0.626000, 997.115418
0.627000, 997.141839
0.628000, 997.174642
0.629000, 997.214111
0.630000, 997.260438
0.631000, 997.313710
0.632000, 997.373911
0.633000, 997.440916
0.634000, 997.514512
0.635000, 997.594396
0.636000, 997.680190
0.637000, 997.771450
0.638000, 997.867703
0.639000, 997.968465
0.640000, 998.073267
0.641000, 998.181674
0.642000, 998.293304
0.643000, 998.407828
0.644000, 998.524968
0.645000, 998.644492
0.646000, 998.766219
0.647000, 998.890017
0.648000, 999.015810
0.649000, 999.143574
0.650000, 999.273336
0.651000, 999.405167
0.652000, 999.539163
0.653000, 999.675437
0.654000, 999.814099
0.655000, 999.955249
0.656000, 1000.098971
0.657000, 1000.245332
0.658000, 1000.394375
0.659000, 1000.546108
0.660000, 1000.700495
0.661000, 1000.857454
0.662000, 1001.016856
0.663000, 1001.178532
0.664000, 1001.342273
0.665000, 1001.507822
0.666000, 1001.674870
0.667000, 1001.843046
0.668000, 1002.011923
0.669000, 1002.181016
0.670000, 1002.349796
0.671000, 1002.517693
0.672000, 1002.684115
0.673000, 1002.848463
0.674000, 1003.010154
0.675000, 1003.168629
0.676000, 1003.323367
0.677000, 1003.473885
0.678000, 1003.619748
0.679000, 1003.760577
0.680000, 1003.896068
0.681000, 1004.025992
0.682000, 1004.150213
0.683000, 1004.268694
0.684000, 1004.381514
0.685000, 1004.488882
0.686000, 1004.591130
0.687000, 1004.688719
0.688000, 1004.782243
0.689000, 1004.872426
0.690000, 1004.960092
0.691000, 1005.046128
0.692000, 1005.131450
0.693000, 1005.216973
0.694000, 1005.303576
0.695000, 1005.392073
0.696000, 1005.483195
0.697000, 1005.577567
0.698000, 1005.675693
0.699000, 1005.777953
0.700000, 1005.884600
0.701000, 1005.995762
0.702000, 1006.111459
0.703000, 1006.231622
0.704000, 1006.356124
0.705000, 1006.484794
0.706000, 1006.617440
0.707000, 1006.753852
0.708000, 1006.893801
0.709000, 1007.037040
0.710000, 1007.183303
0.711000, 1007.332315
0.712000, 1007.483792
0.713000, 1007.637439
0.714000, 1007.792952
0.715000, 1007.950002
0.716000, 1008.108225
0.717000, 1008.267214
0.718000, 1008.426524
0.719000, 1008.585674
0.720000, 1008.744151
0.721000, 1008.901429
0.722000, 1009.056972
0.723000, 1009.210234
0.724000, 1009.360650
0.725000, 1009.507646
0.726000, 1009.650638
0.727000, 1009.789050
0.728000, 1009.922320
0.729000, 1010.049919
0.730000, 1010.171364
0.731000, 1010.286238
0.732000, 1010.394211
0.733000, 1010.495040
0.734000, 1010.588581
0.735000, 1010.674777
0.736000, 1010.753657
0.737000, 1010.825334
0.738000, 1010.890005
0.739000, 1010.947963
0.740000, 1010.999592
0.741000, 1011.045367
0.742000, 1011.085852
0.743000, 1011.121694
0.744000, 1011.153615
0.745000, 1011.182398
0.746000, 1011.208878
0.747000, 1011.233923
0.748000, 1011.258414
0.749000, 1011.283224
0.750000, 1011.309198
0.751000, 1011.337139
0.752000, 1011.367793
0.753000, 1011.401846
0.754000, 1011.439918
0.755000, 1011.482567
0.756000, 1011.530266
0.757000, 1011.583408
0.758000, 1011.642305
0.759000, 1011.707192
0.760000, 1011.778239
0.761000, 1011.855561
0.762000, 1011.939236
0.763000, 1012.029308
0.764000, 1012.125784
0.765000, 1012.228644
0.766000, 1012.337844
0.767000, 1012.453315
0.768000, 1012.574967
0.769000, 1012.702680
0.770000, 1012.836295
0.771000, 1012.975608
0.772000, 1013.120346
0.773000, 1013.270161
0.774000, 1013.424620
0.775000, 1013.583201
0.776000, 1013.745297
0.777000, 1013.910221
0.778000, 1014.077211
0.779000, 1014.245432
0.780000, 1014.413986
0.781000, 1014.581911
0.782000, 1014.748206
0.783000, 1014.911840
0.784000, 1015.071786
0.785000, 1015.227046
0.786000, 1015.376678
0.787000, 1015.519811
0.788000, 1015.655674
0.789000, 1015.783616
0.790000, 1015.903106
0.791000, 1016.013743
0.792000, 1016.115270
0.793000, 1016.207570
0.794000, 1016.290678
0.795000, 1016.364774
0.796000, 1016.430179
0.797000, 1016.487340
0.798000, 1016.536810
0.799000, 1016.579229
0.800000, 1016.615314
0.801000, 1016.645836
0.802000, 1016.671613
0.803000, 1016.693488
0.804000, 1016.712331
0.805000, 1016.729024
0.806000, 1016.744457
0.807000, 1016.759511
0.808000, 1016.775051
0.809000, 1016.791930
0.810000, 1016.810989
0.811000, 1016.833044
0.812000, 1016.858878
0.813000, 1016.889234
0.814000, 1016.924790
0.815000, 1016.966146
0.816000, 1017.013798
0.817000, 1017.068127
0.818000, 1017.129376
0.819000, 1017.197634
0.820000, 1017.272818
0.821000, 1017.354661
0.822000, 1017.442712
0.823000, 1017.536331
0.824000, 1017.634707
0.825000, 1017.736872
0.826000, 1017.841723
0.827000, 1017.948051
0.828000, 1018.054564
0.829000, 1018.159930
0.830000, 1018.262817
0.831000, 1018.361929
0.832000, 1018.456049
0.833000, 1018.544067
0.834000, 1018.625006
0.835000, 1018.698041
0.836000, 1018.762510
0.837000, 1018.817924
0.838000, 1018.863981
0.839000, 1018.900571
0.840000, 1018.927791
0.841000, 1018.945936
0.842000, 1018.955493
0.843000, 1018.957118
0.844000, 1018.951622
0.845000, 1018.939952
0.846000, 1018.923172
0.847000, 1018.902442
0.848000, 1018.878999
0.849000, 1018.854132
0.850000, 1018.829167
0.851000, 1018.805455
0.852000, 1018.784350
0.853000, 1018.767194
0.854000, 1018.755287
0.855000, 1018.749863
0.856000, 1018.752072
0.857000, 1018.762957
0.858000, 1018.783434
0.859000, 1018.814276
0.860000, 1018.856087
0.861000, 1018.909276
0.862000, 1018.974038
0.863000, 1019.050352
0.864000, 1019.137975
0.865000, 1019.236454
0.866000, 1019.345138
0.867000, 1019.463205
0.868000, 1019.589680
0.869000, 1019.723449
0.870000, 1019.863280
0.871000, 1020.007838
0.872000, 1020.155708
0.873000, 1020.305435
0.874000, 1020.455564
0.875000, 1020.604671
0.876000, 1020.751387
0.877000, 1020.894409
0.878000, 1021.032520
0.879000, 1021.164617
0.880000, 1021.289722
0.881000, 1021.406997
0.882000, 1021.515733
0.883000, 1021.615355
0.884000, 1021.705428
0.885000, 1021.785678
0.886000, 1021.856004
0.887000, 1021.916495
0.888000, 1021.967435
0.889000, 1022.009293
0.890000, 1022.042728
0.891000, 1022.068567
0.892000, 1022.087789
0.893000, 1022.101496
0.894000, 1022.110879
0.895000, 1022.117184
0.896000, 1022.121672
0.897000, 1022.125585
0.898000, 1022.130109
0.899000, 1022.136345
0.900000, 1022.145291
0.901000, 1022.157814
0.902000, 1022.174634
0.903000, 1022.196313
0.904000, 1022.223243
0.905000, 1022.255652
0.906000, 1022.293612
0.907000, 1022.337059
0.908000, 1022.385807
0.909000, 1022.439568
0.910000, 1022.497971
0.911000, 1022.560577
0.912000, 1022.626901
0.913000, 1022.696415
0.914000, 1022.768576
0.915000, 1022.842845
0.916000, 1022.918713
0.917000, 1022.995713
0.918000, 1023.073430
0.919000, 1023.151504
0.920000, 1023.229629
0.921000, 1023.307537
0.922000, 1023.384990
0.923000, 1023.461769
0.924000, 1023.537662
0.925000, 1023.612458
0.926000, 1023.685938
0.927000, 1023.757864
0.928000, 1023.827962
0.929000, 1023.895914
0.930000, 1023.961346
0.931000, 1024.023833
0.932000, 1024.082906
0.933000, 1024.138078
0.934000, 1024.188859
0.935000, 1024.234786
0.936000, 1024.275446
0.937000, 1024.310497
