time, Temp
0.000000, 0.000000
0.001000, 3.501577
0.002000, 21.554623
0.003000, 47.298804
0.004000, 78.520254
0.005000, 113.917692
0.006000, 152.506622
0.007000, 193.460447
0.008000, 236.056775
0.009000, 279.656268
0.010000, 323.692837
0.011000, 367.667583
0.012000, 411.144122
0.013000, 453.745245
0.014000, 495.150309
0.015000, 535.092464
0.016000, 573.355144
0.017000, 609.766659
0.018000, 644.193743
0.019000, 676.536807
0.020000, 706.726545
0.021000, 734.720669
0.022000, 760.500336
0.023000, 784.066610
0.024000, 805.437371
0.025000, 824.644136
0.026000, 841.729728
0.027000, 856.747209
0.028000, 869.759053
0.029000, 880.836518
0.030000, 890.059232
0.031000, 897.514771
0.032000, 903.298478
0.033000, 907.513241
0.034000, 910.269052
0.035000, 911.682331
0.036000, 911.874990
0.037000, 910.973396
0.038000, 909.107106
0.039000, 906.407404
0.040000, 903.005742
0.041000, 899.032106
0.042000, 894.613413
0.043000, 889.871941
0.044000, 884.923793
0.045000, 879.877477
0.046000, 874.832670
0.047000, 869.879166
0.048000, 865.096046
0.049000, 860.551097
0.050000, 856.300501
0.051000, 852.388751
0.052000, 848.848846
0.053000, 845.702682
0.054000, 842.961630
0.055000, 840.627345
0.056000, 838.692733
0.057000, 837.143014
0.058000, 835.956866
0.059000, 835.107608
0.060000, 834.564270
0.061000, 834.292567
0.062000, 834.255952
0.063000, 834.416701
0.064000, 834.736878
0.065000, 835.179086
0.066000, 835.707071
0.067000, 836.286218
0.068000, 836.883965
0.069000, 837.470127
0.070000, 838.017195
0.071000, 838.500585
0.072000, 838.898831
0.073000, 839.193708
0.074000, 839.370266
0.075000, 839.416765
0.076000, 839.324542
0.077000, 839.087878
0.078000, 838.703808
0.079000, 838.171921
0.080000, 837.494178
0.081000, 836.674737
0.082000, 835.719793
0.083000, 834.637421
0.084000, 833.437337
0.085000, 832.130660
0.086000, 830.729711
0.087000, 829.247774
0.088000, 827.698869
0.089000, 826.097524
0.090000, 824.458558
0.091000, 822.796905
0.092000, 821.127416
0.093000, 819.464676
0.094000, 817.822830
0.095000, 816.215427
0.096000, 814.655271
0.097000, 813.154290
0.098000, 811.723432
0.099000, 810.372613
0.100000, 809.110666
0.101000, 807.945289
0.102000, 806.883052
0.103000, 805.929425
0.104000, 805.088784
0.105000, 804.364396
0.106000, 803.758379
0.107000, 803.271681
0.108000, 802.904093
0.109000, 802.654297
0.110000, 802.519901
0.111000, 802.497490
0.112000, 802.582699
0.113000, 802.770311
0.114000, 803.054369
0.115000, 803.428301
0.116000, 803.885016
0.117000, 804.416963
0.118000, 805.016213
0.119000, 805.674581
0.120000, 806.383753
0.121000, 807.135376
0.122000, 807.921154
0.123000, 808.732946
0.124000, 809.562879
0.125000, 810.403442
0.126000, 811.247578
0.127000, 812.088729
0.128000, 812.920852
0.129000, 813.738415
0.130000, 814.536391
0.131000, 815.310250
0.132000, 816.055934
0.133000, 816.769845
0.134000, 817.448805
0.135000, 818.090027
0.136000, 818.691104
0.137000, 819.250025
0.138000, 819.765154
0.139000, 820.235190
0.140000, 820.659126
0.141000, 821.036230
0.142000, 821.366076
0.143000, 821.648563
0.144000, 821.883959
0.145000, 822.072952
0.146000, 822.216684
0.147000, 822.316777
0.148000, 822.375335
0.149000, 822.394904
0.150000, 822.378416
0.151000, 822.329179
0.152000, 822.250834
0.153000, 822.147336
0.154000, 822.022921
0.155000, 821.882071
0.156000, 821.729475
0.157000, 821.569952
0.158000, 821.408383
0.159000, 821.249640
0.160000, 821.098532
0.161000, 820.959752
0.162000, 820.837834
0.163000, 820.737100
0.164000, 820.661560
0.165000, 820.614816
0.166000, 820.599958
0.167000, 820.619478
0.168000, 820.675186
0.169000, 820.768163
0.170000, 820.898722
0.171000, 821.066402
0.172000, 821.269969
0.173000, 821.507450
0.174000, 821.776186
0.175000, 822.072918
0.176000, 822.393878
0.177000, 822.734890
0.178000, 823.091510
0.179000, 823.459178
0.180000, 823.833349
0.181000, 824.209621
0.182000, 824.583803
0.183000, 824.952000
0.184000, 825.310689
0.185000, 825.656768
0.186000, 825.987600
0.187000, 826.301032
0.188000, 826.595398
0.189000, 826.869494
0.190000, 827.122528
0.191000, 827.354084
0.192000, 827.564082
0.193000, 827.752739
0.194000, 827.920520
0.195000, 828.068090
0.196000, 828.196292
0.197000, 828.306145
0.198000, 828.398836
0.199000, 828.475700
0.200000, 828.538215
0.201000, 828.588003
0.202000, 828.626820
0.203000, 828.656526
0.204000, 828.679048
0.205000, 828.696360
0.206000, 828.710459
0.207000, 828.723347
0.208000, 828.737012
0.209000, 828.753389
0.210000, 828.774297
0.211000, 828.801382
0.212000, 828.836072
0.213000, 828.879522
0.214000, 828.932586
0.215000, 828.995826
0.216000, 829.069544
0.217000, 829.153819
0.218000, 829.248543
0.219000, 829.353448
0.220000, 829.468113
0.221000, 829.591965
0.222000, 829.724273
0.223000, 829.864180
0.224000, 830.010737
0.225000, 830.162941
0.226000, 830.319755
0.227000, 830.480113
0.228000, 830.642933
0.229000, 830.807124
0.230000, 830.971598
0.231000, 831.135301
0.232000, 831.297271
0.233000, 831.456684
0.234000, 831.612902
0.235000, 831.765514
0.236000, 831.914338
0.237000, 832.059370
0.238000, 832.200732
0.239000, 832.338652
0.240000, 832.473447
0.241000, 832.605512
0.242000, 832.735325
0.243000, 832.863438
0.244000, 832.990490
0.245000, 833.117194
0.246000, 833.244321
0.247000, 833.372692
0.248000, 833.503189
0.249000, 833.636750
0.250000, 833.774356
0.251000, 833.917006
0.252000, 834.065703
0.253000, 834.221424
0.254000, 834.385078
0.255000, 834.557466
0.256000, 834.739260
0.257000, 834.930994
0.258000, 835.133037
0.259000, 835.345584
0.260000, 835.568656
0.261000, 835.802100
0.262000, 836.045610
0.263000, 836.298743
0.264000, 836.560944
0.265000, 836.831533
0.266000, 837.109708
0.267000, 837.394544
0.268000, 837.685022
0.269000, 837.980051
0.270000, 838.278521
0.271000, 838.579315
0.272000, 838.881309
0.273000, 839.183374
0.274000, 839.484385
0.275000, 839.783228
0.276000, 840.078794
0.277000, 840.369962
0.278000, 840.655587
0.279000, 840.934509
0.280000, 841.205550
0.281000, 841.467489
0.282000, 841.719052
0.283000, 841.958916
0.284000, 842.185723
0.285000, 842.398097
0.286000, 842.594672
0.287000, 842.774121
0.288000, 842.935186
0.289000, 843.076712
0.290000, 843.197678
0.291000, 843.297234
0.292000, 843.374713
0.293000, 843.429631
0.294000, 843.461695
0.295000, 843.470810
0.296000, 843.457077
0.297000, 843.420769
0.298000, 843.362307
0.299000, 843.282266
0.300000, 843.181394
0.301000, 843.060606
0.302000, 842.920988
0.303000, 842.763789
0.304000, 842.590426
0.305000, 842.402488
0.306000, 842.201728
0.307000, 841.990057
0.308000, 841.769546
0.309000, 841.542425
0.310000, 841.311072
0.311000, 841.077999
0.312000, 840.845837
0.313000, 840.617321
0.314000, 840.395253
0.315000, 840.182460
0.316000, 839.981752
0.317000, 839.795871
0.318000, 839.627425
0.319000, 839.478827
0.320000, 839.352242
0.321000, 839.249531
0.322000, 839.172206
0.323000, 839.121384
0.324000, 839.097772
0.325000, 839.101655
0.326000, 839.132900
0.327000, 839.190979
0.328000, 839.274979
0.329000, 839.383628
0.330000, 839.515334
0.331000, 839.668249
0.332000, 839.840325
0.333000, 840.029356
0.334000, 840.233057
0.335000, 840.449151
0.336000, 840.675444
0.337000, 840.909881
0.338000, 841.150583
0.339000, 841.395865
0.340000, 841.644245
0.341000, 841.894464
0.342000, 842.145499
0.343000, 842.396566
0.344000, 842.647119
0.345000, 842.896821
0.346000, 843.145492
0.347000, 843.393047
0.348000, 843.639448
0.349000, 843.884660
0.350000, 844.128625
0.351000, 844.371248
0.352000, 844.612387
0.353000, 844.851845
0.354000, 845.089361
0.355000, 845.324605
0.356000, 845.557190
0.357000, 845.786688
0.358000, 846.012653
0.359000, 846.234620
0.360000, 846.452097
0.361000, 846.664562
0.362000, 846.871466
0.363000, 847.072232
0.364000, 847.266269
0.365000, 847.453006
0.366000, 847.631905
0.367000, 847.802485
0.368000, 847.964350
0.369000, 848.117218
0.370000, 848.260927
0.371000, 848.395434
0.372000, 848.520821
0.373000, 848.637295
0.374000, 848.745188
0.375000, 848.844963
0.376000, 848.937221
0.377000, 849.022692
0.378000, 849.102204
0.379000, 849.176660
0.380000, 849.247018
0.381000, 849.314280
0.382000, 849.379482
0.383000, 849.443692
0.384000, 849.508013
0.385000, 849.573564
0.386000, 849.641458
0.387000, 849.712781
0.388000, 849.788594
0.389000, 849.869928
0.390000, 849.957766
0.391000, 850.053024
0.392000, 850.156533
0.393000, 850.269021
0.394000, 850.391102
0.395000, 850.523263
0.396000, 850.665850
0.397000, 850.819051
0.398000, 850.982879
0.399000, 851.157147
0.400000, 851.341454
0.401000, 851.535186
0.402000, 851.737521
0.403000, 851.947440
0.404000, 852.163743
0.405000, 852.385074
0.406000, 852.609953
0.407000, 852.836817
0.408000, 853.064054
0.409000, 853.290050
0.410000, 853.513230
0.411000, 853.732105
0.412000, 853.945302
0.413000, 854.151593
0.414000, 854.349920
0.415000, 854.539408
0.416000, 854.719402
0.417000, 854.889480
0.418000, 855.049463
0.419000, 855.199410
0.420000, 855.339596
0.421000, 855.470492
0.422000, 855.592751
0.423000, 855.707180
0.424000, 855.814708
0.425000, 855.916337
0.426000, 856.013105
0.427000, 856.106040
0.428000, 856.196121
0.429000, 856.284235
0.430000, 856.371127
0.431000, 856.457372
0.432000, 856.543359
0.433000, 856.629274
0.434000, 856.715097
0.435000, 856.800598
0.436000, 856.885357
0.437000, 856.968784
0.438000, 857.050149
0.439000, 857.128626
0.440000, 857.203343
0.441000, 857.273423
0.442000, 857.338030
0.443000, 857.396397
0.444000, 857.447845
0.445000, 857.491803
0.446000, 857.527833
0.447000, 857.555635
0.448000, 857.575048
0.449000, 857.586032
0.450000, 857.588673
0.451000, 857.583164
0.452000, 857.569781
0.453000, 857.548861
0.454000, 857.520782
0.455000, 857.485955
0.456000, 857.444811
0.457000, 857.397801
0.458000, 857.345392
0.459000, 857.288060
0.460000, 857.226280
0.461000, 857.160519
0.462000, 857.091230
0.463000, 857.018836
0.464000, 856.943731
0.465000, 856.866298
0.466000, 856.786930
0.467000, 856.706048
0.468000, 856.624123
0.469000, 856.541684
0.470000, 856.459314
0.471000, 856.377649
0.472000, 856.297374
0.473000, 856.219234
0.474000, 856.144029
0.475000, 856.072615
0.476000, 856.005903
0.477000, 855.944850
0.478000, 855.890462
0.479000, 855.843789
0.480000, 855.805900
0.481000, 855.777872
0.482000, 855.760767
0.483000, 855.755619
0.484000, 855.763432
0.485000, 855.785164
0.486000, 855.821705
0.487000, 855.873859
0.488000, 855.942315
0.489000, 856.027618
0.490000, 856.130136
0.491000, 856.250047
0.492000, 856.387306
0.493000, 856.541628
0.494000, 856.712483
0.495000, 856.899094
0.496000, 857.100436
0.497000, 857.315239
0.498000, 857.541992
0.499000, 857.778964
0.500000, 858.024227
0.501000, 858.275698
0.502000, 858.531181
0.503000, 858.788424
0.504000, 859.045162
0.505000, 859.299175
0.506000, 859.548323
0.507000, 859.790595
0.508000, 860.024151
0.509000, 860.247361
0.510000, 860.458852
0.511000, 860.657529
0.512000, 860.842596
0.513000, 861.013557
0.514000, 861.170208
0.515000, 861.312633
0.516000, 861.441179
0.517000, 861.556439
0.518000, 861.659223
0.519000, 861.750527
0.520000, 861.831489
0.521000, 861.903346
0.522000, 861.967394
0.523000, 862.024965
0.524000, 862.077390
0.525000, 862.125984
0.526000, 862.172020
0.527000, 862.216716
0.528000, 862.261197
0.529000, 862.306476
0.530000, 862.353423
0.531000, 862.402751
0.532000, 862.455006
0.533000, 862.510562
0.534000, 862.569617
0.535000, 862.632210
0.536000, 862.698241
0.537000, 862.767489
0.538000, 862.839637
0.539000, 862.914286
0.540000, 862.990993
0.541000, 863.069291
0.542000, 863.148721
0.543000, 863.228851
0.544000, 863.309297
0.545000, 863.389728
0.546000, 863.469862
0.547000, 863.549461
0.548000, 863.628326
0.549000, 863.706309
0.550000, 863.783314
0.551000, 863.859297
0.552000, 863.934259
0.553000, 864.008236
0.554000, 864.081282
0.555000, 864.153458
0.556000, 864.224807
0.557000, 864.295351
0.558000, 864.365069
0.559000, 864.433888
0.560000, 864.501666
0.561000, 864.568171
0.562000, 864.633068
0.563000, 864.695915
0.564000, 864.756159
0.565000, 864.813142
0.566000, 864.866113
0.567000, 864.914250
0.568000, 864.956692
0.569000, 864.992572
0.570000, 865.021045
0.571000, 865.041320
0.572000, 865.052682
0.573000, 865.054520
0.574000, 865.046344
0.575000, 865.027817
0.576000, 864.998775
0.577000, 864.959248
0.578000, 864.909465
0.579000, 864.849860
0.580000, 864.781073
0.581000, 864.703944
0.582000, 864.619502
0.583000, 864.528941
0.584000, 864.433600
0.585000, 864.334937
0.586000, 864.234486
0.587000, 864.133823
0.588000, 864.034516
0.589000, 863.938086
0.590000, 863.845970
0.591000, 863.759484
0.592000, 863.679789
0.593000, 863.607873
0.594000, 863.544539
0.595000, 863.490405
0.596000, 863.445912
0.597000, 863.411334
0.598000, 863.386782
0.599000, 863.372215
0.600000, 863.367460
0.601000, 863.372241
0.602000, 863.386206
0.603000, 863.408937
0.604000, 863.439975
0.605000, 863.478826
0.606000, 863.524990
0.607000, 863.577964
0.608000, 863.637252
0.609000, 863.702378
0.610000, 863.772893
0.611000, 863.848383
0.612000, 863.928479
0.613000, 864.012854
0.614000, 864.101222
0.615000, 864.193325
0.616000, 864.288918
0.617000, 864.387766
0.618000, 864.489622
0.619000, 864.594215
0.620000, 864.701242
0.621000, 864.810361
0.622000, 864.921178
0.623000, 865.033260
0.624000, 865.146147
0.625000, 865.259380
0.626000, 865.372508
0.627000, 865.485105
0.628000, 865.596780
0.629000, 865.707180
0.630000, 865.815997
0.631000, 865.922969
0.632000, 866.027894
0.633000, 866.130620
0.634000, 866.231051
0.635000, 866.329145
0.636000, 866.424914
0.637000, 866.518418
0.638000, 866.609757
0.639000, 866.699072
0.640000, 866.786535
0.641000, 866.872348
0.642000, 866.956743
0.643000, 867.039982
0.644000, 867.122355
0.645000, 867.204184
0.646000, 867.285815
0.647000, 867.367609
0.648000, 867.449933
0.649000, 867.533150
0.650000, 867.617608
0.651000, 867.703631
0.652000, 867.791510
0.653000, 867.881492
0.654000, 867.973772
0.655000, 868.068480
0.656000, 868.165672
0.657000, 868.265317
0.658000, 868.367299
0.659000, 868.471419
0.660000, 868.577389
0.661000, 868.684839
0.662000, 868.793307
0.663000, 868.902248
0.664000, 869.011037
0.665000, 869.118979
0.666000, 869.225317
0.667000, 869.329248
0.668000, 869.429934
0.669000, 869.526522
0.670000, 869.618153
0.671000, 869.703983
0.672000, 869.783204
0.673000, 869.855072
0.674000, 869.918929
0.675000, 869.974224
0.676000, 870.020531
0.677000, 870.057570
0.678000, 870.085214
0.679000, 870.103497
0.680000, 870.112611
0.681000, 870.112896
0.682000, 870.104848
0.683000, 870.089108
0.684000, 870.066453
0.685000, 870.037779
0.686000, 870.004082
0.687000, 869.966436
0.688000, 869.925969
0.689000, 869.883838
0.690000, 869.841213
0.691000, 869.799252
0.692000, 869.759076
0.693000, 869.721741
0.694000, 869.688211
0.695000, 869.659337
0.696000, 869.635839
0.697000, 869.618292
0.698000, 869.607112
0.699000, 869.602537
0.700000, 869.604621
0.701000, 869.613233
0.702000, 869.628072
0.703000, 869.648670
0.704000, 869.674411
0.705000, 869.704550
0.706000, 869.738236
0.707000, 869.774542
0.708000, 869.812496
0.709000, 869.851116
0.710000, 869.889447
0.711000, 869.926592
0.712000, 869.961738
0.713000, 869.994192
0.714000, 870.023394
0.715000, 870.048938
0.716000, 870.070586
0.717000, 870.088274
0.718000, 870.102112
0.719000, 870.112370
0.720000, 870.119460
0.721000, 870.123907
0.722000, 870.126325
0.723000, 870.127395
0.724000, 870.127836
0.725000, 870.128376
0.726000, 870.129729
0.727000, 870.132577
0.728000, 870.137560
0.729000, 870.145265
0.730000, 870.156228
0.731000, 870.170916
0.732000, 870.189729
0.733000, 870.212996
0.734000, 870.240980
0.735000, 870.273887
0.736000, 870.311878
0.737000, 870.355068
0.738000, 870.403542
0.739000, 870.457357
0.740000, 870.516560
0.741000, 870.581194
0.742000, 870.651291
0.743000, 870.726879
0.744000, 870.807975
0.745000, 870.894590
0.746000, 870.986724
0.747000, 871.084358
0.748000, 871.187441
0.749000, 871.295888
0.750000, 871.409571
0.751000, 871.528315
0.752000, 871.651895
0.753000, 871.780029
0.754000, 871.912370
0.755000, 872.048491
0.756000, 872.187892
0.757000, 872.329998
0.758000, 872.474158
0.759000, 872.619649
0.760000, 872.765683
0.761000, 872.911416
0.762000, 873.055960
0.763000, 873.198409
0.764000, 873.337849
0.765000, 873.473383
0.766000, 873.604141
0.767000, 873.729294
0.768000, 873.848062
0.769000, 873.959723
0.770000, 874.063629
0.771000, 874.159228
0.772000, 874.246081
0.773000, 874.323873
0.774000, 874.392430
0.775000, 874.451725
0.776000, 874.501880
0.777000, 874.543165
0.778000, 874.575990
0.779000, 874.600889
0.780000, 874.618508
0.781000, 874.629589
0.782000, 874.634951
0.783000, 874.635471
0.784000, 874.632064
0.785000, 874.625659
0.786000, 874.617180
0.787000, 874.607524
0.788000, 874.597546
0.789000, 874.588038
0.790000, 874.579713
0.791000, 874.573192
0.792000, 874.569000
0.793000, 874.567550
0.794000, 874.569146
0.795000, 874.573985
0.796000, 874.582171
0.797000, 874.593721
0.798000, 874.608569
0.799000, 874.626584
0.800000, 874.647581
0.801000, 874.671333
0.802000, 874.697575
0.803000, 874.726017
0.804000, 874.756343
0.805000, 874.788227
0.806000, 874.821339
0.807000, 874.855357
0.808000, 874.889984
0.809000, 874.924944
0.810000, 874.959991
0.811000, 874.994906
0.812000, 875.029512
0.813000, 875.063672
0.814000, 875.097297
0.815000, 875.130343
0.816000, 875.162812
0.817000, 875.194746
0.818000, 875.226212
0.819000, 875.257292
0.820000, 875.288078
0.821000, 875.318664
0.822000, 875.349137
0.823000, 875.379574
0.824000, 875.410036
0.825000, 875.440563
0.826000, 875.471182
0.827000, 875.501899
0.828000, 875.532703
0.829000, 875.563561
0.830000, 875.594417
0.831000, 875.625190
0.832000, 875.655786
0.833000, 875.686106
0.834000, 875.716057
0.835000, 875.745563
0.836000, 875.774577
0.837000, 875.803075
0.838000, 875.831056
0.839000, 875.858536
0.840000, 875.885535
0.841000, 875.912069
0.842000, 875.938153
0.843000, 875.963783
0.844000, 875.988931
0.845000, 876.013536
0.846000, 876.037505
0.847000, 876.060709
0.848000, 876.082994
0.849000, 876.104179
0.850000, 876.124068
0.851000, 876.142458
0.852000, 876.159146
0.853000, 876.173935
0.854000, 876.186652
0.855000, 876.197147
0.856000, 876.205310
0.857000, 876.211077
0.858000, 876.214444
0.859000, 876.215483
0.860000, 876.214345
0.861000, 876.211273
0.862000, 876.206602
0.863000, 876.200749
0.864000, 876.194213
0.865000, 876.187551
0.866000, 876.181375
0.867000, 876.176329
0.868000, 876.173070
0.869000, 876.172251
0.870000, 876.174507
0.871000, 876.180439
0.872000, 876.190598
0.873000, 876.205462
0.874000, 876.225422
0.875000, 876.250769
0.876000, 876.281688
0.877000, 876.318252
0.878000, 876.360427
0.879000, 876.408074
0.880000, 876.460954
0.881000, 876.518744
0.882000, 876.581050
0.883000, 876.647421
0.884000, 876.717357
0.885000, 876.790331
0.886000, 876.865803
0.887000, 876.943239
0.888000, 877.022120
0.889000, 877.101939
0.890000, 877.182206
0.891000, 877.262455
0.892000, 877.342247
0.893000, 877.421174
0.894000, 877.498865
0.895000, 877.574983
0.896000, 877.649232
0.897000, 877.721358
0.898000, 877.791154
0.899000, 877.858458
0.900000, 877.923151
0.901000, 877.985159
0.902000, 878.044462
0.903000, 878.101094
0.904000, 878.155132
0.905000, 878.206691
0.906000, 878.255911
0.907000, 878.302952
0.908000, 878.347980
0.909000, 878.391166
0.910000, 878.432671
0.911000, 878.472645
0.912000, 878.511219
0.913000, 878.548510
0.914000, 878.584621
0.915000, 878.619639
0.916000, 878.653644
0.917000, 878.686712
0.918000, 878.718917
0.919000, 878.750328
0.920000, 878.781013
0.921000, 878.811040
0.922000, 878.840481
0.923000, 878.869410
0.924000, 878.897910
0.925000, 878.926064
0.926000, 878.953958
0.927000, 878.981679
0.928000, 879.009317
0.929000, 879.036954
0.930000, 879.064661
0.931000, 879.092491
0.932000, 879.120481
0.933000, 879.148651
0.934000, 879.176993
0.935000, 879.205471
0.936000, 879.234014
0.937000, 879.262514
0.938000, 879.290823
0.939000, 879.318762
0.940000, 879.346132
0.941000, 879.372733
0.942000, 879.398376
0.943000, 879.422889
0.944000, 879.446132
0.945000, 879.468008
0.946000, 879.488468
0.947000, 879.507512
0.948000, 879.525188
0.949000, 879.541586
0.950000, 879.556837
0.951000, 879.571101
