time, Temp
0.000000, 0.000000
0.001000, 291.124409
0.002000, 378.569303
0.003000, 414.406187
0.004000, 429.210430
0.005000, 433.282928
0.006000, 431.117385
0.007000, 425.026332
0.008000, 416.355955
0.009000, 405.958907
0.010000, 394.411076
0.011000, 382.127642
0.012000, 369.414948
0.013000, 356.507877
0.014000, 343.586155
0.015000, 330.797148
0.016000, 318.259186
0.017000, 306.067284
0.018000, 294.299327
0.019000, 283.013433
0.020000, 272.246895
0.021000, 262.031217
0.022000, 252.391764
0.023000, 243.346646
0.024000, 234.910589
0.025000, 227.087162
0.026000, 219.871408
0.027000, 213.250133
0.028000, 207.201875
0.029000, 201.706444
0.030000, 196.735943
0.031000, 192.263467
0.032000, 188.260989
0.033000, 184.698060
0.034000, 181.541862
0.035000, 178.759822
0.036000, 176.318272
0.037000, 174.186887
0.038000, 172.336213
0.039000, 170.736241
0.040000, 169.356159
0.041000, 168.167181
0.042000, 167.141356
0.043000, 166.252151
0.044000, 165.473894
0.045000, 164.782542
0.046000, 164.155111
0.047000, 163.569354
0.048000, 163.004308
0.049000, 162.441603
0.050000, 161.864092
0.051000, 161.256119
0.052000, 160.604053
0.053000, 159.897756
0.054000, 159.129003
0.055000, 158.292322
0.056000, 157.383656
0.057000, 156.400030
0.058000, 155.340424
0.059000, 154.205782
0.060000, 152.998681
0.061000, 151.722799
0.062000, 150.382931
0.063000, 148.985199
0.064000, 147.536906
0.065000, 146.047008
0.066000, 144.524049
0.067000, 142.976426
0.068000, 141.412717
0.069000, 139.842565
0.070000, 138.274412
0.071000, 136.716008
0.072000, 135.174192
0.073000, 133.655587
0.074000, 132.166715
0.075000, 130.713052
0.076000, 129.299141
0.077000, 127.929370
0.078000, 126.606737
0.079000, 125.333565
0.080000, 124.111687
0.081000, 122.941475
0.082000, 121.822801
0.083000, 120.755069
0.084000, 119.737232
0.085000, 118.768204
0.086000, 117.846009
0.087000, 116.969049
0.088000, 116.134840
0.089000, 115.340899
0.090000, 114.584037
0.091000, 113.860554
0.092000, 113.166232
0.093000, 112.497048
0.094000, 111.848529
0.095000, 111.216020
0.096000, 110.594931
0.097000, 109.980670
0.098000, 109.368859
0.099000, 108.755170
0.100000, 108.135608
0.101000, 107.506552
0.102000, 106.864657
0.103000, 106.207204
0.104000, 105.531880
0.105000, 104.836682
0.106000, 104.120588
0.107000, 103.382971
0.108000, 102.623081
0.109000, 101.840790
0.110000, 101.036296
0.111000, 100.210220
0.112000, 99.363325
0.113000, 98.496816
0.114000, 97.612286
0.115000, 96.711384
0.116000, 95.796099
0.117000, 94.868586
0.118000, 93.930912
0.119000, 92.985146
0.120000, 92.033714
0.121000, 91.079486
0.122000, 90.125429
0.123000, 89.174196
0.124000, 88.228278
0.125000, 87.290460
0.126000, 86.363213
0.127000, 85.449558
0.128000, 84.551819
0.129000, 83.672193
0.130000, 82.813121
0.131000, 81.976733
0.132000, 81.165380
0.133000, 80.380889
0.134000, 79.625304
0.135000, 78.900370
0.136000, 78.207783
0.137000, 77.548915
0.138000, 76.924735
0.139000, 76.335700
0.140000, 75.781731
0.141000, 75.262744
0.142000, 74.778091
0.143000, 74.326965
0.144000, 73.907986
0.145000, 73.519440
0.146000, 73.159743
0.147000, 72.826632
0.148000, 72.517761
0.149000, 72.230987
0.150000, 71.963526
0.151000, 71.712730
0.152000, 71.475685
0.153000, 71.249649
0.154000, 71.031798
0.155000, 70.819233
0.156000, 70.609554
0.157000, 70.400349
0.158000, 70.189382
0.159000, 69.974812
0.160000, 69.754998
0.161000, 69.528047
0.162000, 69.292546
0.163000, 69.047019
0.164000, 68.790468
0.165000, 68.521938
0.166000, 68.240845
0.167000, 67.946875
0.168000, 67.639743
0.169000, 67.319362
0.170000, 66.985848
0.171000, 66.639569
0.172000, 66.281088
0.173000, 65.911158
0.174000, 65.530602
0.175000, 65.140254
0.176000, 64.740903
0.177000, 64.333451
0.178000, 63.919167
0.179000, 63.499390
0.180000, 63.075704
0.181000, 62.649449
0.182000, 62.221927
0.183000, 61.794216
0.184000, 61.367546
0.185000, 60.943082
0.186000, 60.521974
0.187000, 60.105270
0.188000, 59.693742
0.189000, 59.288135
0.190000, 58.889238
0.191000, 58.497675
0.192000, 58.113715
0.193000, 57.737798
0.194000, 57.370133
0.195000, 57.010921
0.196000, 56.660533
0.197000, 56.319248
0.198000, 55.987338
0.199000, 55.664892
0.200000, 55.351641
0.201000, 55.047255
0.202000, 54.751403
0.203000, 54.463622
0.204000, 54.183317
0.205000, 53.909906
0.206000, 53.642997
0.207000, 53.382286
0.208000, 53.127193
0.209000, 52.877217
0.210000, 52.631670
0.211000, 52.390073
0.212000, 52.151893
0.213000, 51.916612
0.214000, 51.683585
0.215000, 51.452243
0.216000, 51.221889
0.217000, 50.992150
0.218000, 50.762570
0.219000, 50.532553
0.220000, 50.301447
0.221000, 50.068596
0.222000, 49.833374
0.223000, 49.595198
0.224000, 49.353532
0.225000, 49.107989
0.226000, 48.858447
0.227000, 48.604750
0.228000, 48.346932
0.229000, 48.085294
0.230000, 47.820241
0.231000, 47.552466
0.232000, 47.282808
0.233000, 47.012146
0.234000, 46.741548
0.235000, 46.472131
0.236000, 46.205031
0.237000, 45.941281
0.238000, 45.681863
0.239000, 45.427863
0.240000, 45.180360
0.241000, 44.940098
0.242000, 44.707775
0.243000, 44.483933
0.244000, 44.268920
0.245000, 44.063092
0.246000, 43.866670
0.247000, 43.679627
0.248000, 43.501672
0.249000, 43.332437
0.250000, 43.171364
0.251000, 43.017959
0.252000, 42.871817
0.253000, 42.732339
0.254000, 42.598791
0.255000, 42.470330
0.256000, 42.346177
0.257000, 42.225752
0.258000, 42.108389
0.259000, 41.993228
0.260000, 41.879356
0.261000, 41.766001
0.262000, 41.652373
0.263000, 41.537928
0.264000, 41.421986
0.265000, 41.303928
0.266000, 41.183249
0.267000, 41.059508
0.268000, 40.932355
0.269000, 40.801635
0.270000, 40.667322
0.271000, 40.529558
0.272000, 40.388463
0.273000, 40.244091
0.274000, 40.096541
0.275000, 39.945926
0.276000, 39.792606
0.277000, 39.636971
0.278000, 39.479422
0.279000, 39.320464
0.280000, 39.160632
0.281000, 39.000699
0.282000, 38.841297
0.283000, 38.683093
0.284000, 38.526811
0.285000, 38.373408
0.286000, 38.223495
0.287000, 38.077590
0.288000, 37.935874
0.289000, 37.798392
0.290000, 37.665231
0.291000, 37.536310
0.292000, 37.411503
0.293000, 37.290608
0.294000, 37.173374
0.295000, 37.059550
0.296000, 36.948910
0.297000, 36.841051
0.298000, 36.735679
0.299000, 36.632268
0.300000, 36.530541
0.301000, 36.430221
0.302000, 36.330952
0.303000, 36.232474
0.304000, 36.134452
0.305000, 36.036731
0.306000, 35.939171
0.307000, 35.841673
0.308000, 35.743916
0.309000, 35.645815
0.310000, 35.547208
0.311000, 35.447813
0.312000, 35.347340
0.313000, 35.245542
0.314000, 35.142230
0.315000, 35.037355
0.316000, 34.930985
0.317000, 34.823337
0.318000, 34.714627
0.319000, 34.605128
0.320000, 34.495143
0.321000, 34.384822
0.322000, 34.274464
0.323000, 34.164333
0.324000, 34.054774
0.325000, 33.945972
0.326000, 33.838160
0.327000, 33.731582
0.328000, 33.626508
0.329000, 33.523000
0.330000, 33.421133
0.331000, 33.320974
0.332000, 33.222588
0.333000, 33.126115
0.334000, 33.031624
0.335000, 32.939326
0.336000, 32.849344
0.337000, 32.761860
0.338000, 32.676955
0.339000, 32.594641
0.340000, 32.515009
0.341000, 32.438009
0.342000, 32.363669
0.343000, 32.291954
0.344000, 32.222850
0.345000, 32.156415
0.346000, 32.092668
0.347000, 32.031526
0.348000, 31.972909
0.349000, 31.916633
0.350000, 31.862448
0.351000, 31.810064
0.352000, 31.759061
0.353000, 31.709160
0.354000, 31.660145
0.355000, 31.611868
0.356000, 31.564197
0.357000, 31.516981
0.358000, 31.470002
0.359000, 31.423151
0.360000, 31.376283
0.361000, 31.329327
0.362000, 31.282165
0.363000, 31.234684
0.364000, 31.186708
0.365000, 31.138028
0.366000, 31.088400
0.367000, 31.037720
0.368000, 30.985705
0.369000, 30.932100
0.370000, 30.876634
0.371000, 30.819087
0.372000, 30.759160
0.373000, 30.696622
0.374000, 30.631335
0.375000, 30.563285
0.376000, 30.492366
0.377000, 30.418564
0.378000, 30.341835
0.379000, 30.262271
0.380000, 30.179910
0.381000, 30.094746
0.382000, 30.006818
0.383000, 29.916086
0.384000, 29.822524
0.385000, 29.726174
0.386000, 29.627035
0.387000, 29.525130
0.388000, 29.420622
0.389000, 29.313651
0.390000, 29.204516
0.391000, 29.093503
0.392000, 28.981015
0.393000, 28.867411
0.394000, 28.753003
0.395000, 28.638093
0.396000, 28.523094
0.397000, 28.408316
0.398000, 28.294152
0.399000, 28.180877
0.400000, 28.068711
0.401000, 27.957785
0.402000, 27.848193
0.403000, 27.739966
0.404000, 27.633134
0.405000, 27.527623
0.406000, 27.423410
0.407000, 27.320494
0.408000, 27.218930
0.409000, 27.118749
0.410000, 27.019991
0.411000, 26.922763
0.412000, 26.827297
0.413000, 26.733752
0.414000, 26.642343
0.415000, 26.553265
0.416000, 26.466780
0.417000, 26.383171
0.418000, 26.302597
0.419000, 26.225285
0.420000, 26.151286
0.421000, 26.080656
0.422000, 26.013454
0.423000, 25.949681
0.424000, 25.889301
0.425000, 25.832317
0.426000, 25.778742
0.427000, 25.728547
0.428000, 25.681815
0.429000, 25.638506
0.430000, 25.598504
0.431000, 25.561667
0.432000, 25.527749
0.433000, 25.496520
0.434000, 25.467739
0.435000, 25.441222
0.436000, 25.416729
0.437000, 25.393917
0.438000, 25.372491
0.439000, 25.352134
0.440000, 25.332583
0.441000, 25.313659
0.442000, 25.295045
0.443000, 25.276479
0.444000, 25.257657
0.445000, 25.238261
0.446000, 25.218055
0.447000, 25.196749
0.448000, 25.174128
0.449000, 25.150075
0.450000, 25.124602
0.451000, 25.097670
0.452000, 25.069361
0.453000, 25.039711
0.454000, 25.008828
0.455000, 24.976738
0.456000, 24.943454
0.457000, 24.909019
0.458000, 24.873320
0.459000, 24.836310
0.460000, 24.797968
0.461000, 24.758350
0.462000, 24.717517
0.463000, 24.675537
0.464000, 24.632384
0.465000, 24.587924
0.466000, 24.542084
0.467000, 24.494788
0.468000, 24.445942
0.469000, 24.395524
0.470000, 24.343460
0.471000, 24.289775
0.472000, 24.234543
0.473000, 24.177776
0.474000, 24.119533
0.475000, 24.059947
0.476000, 23.999136
0.477000, 23.937252
0.478000, 23.874394
0.479000, 23.810741
0.480000, 23.746320
0.481000, 23.681170
0.482000, 23.615464
0.483000, 23.549277
0.484000, 23.482737
0.485000, 23.416082
0.486000, 23.349463
0.487000, 23.283029
0.488000, 23.216899
0.489000, 23.151129
0.490000, 23.085754
0.491000, 23.020782
0.492000, 22.956216
0.493000, 22.892189
0.494000, 22.828845
0.495000, 22.766324
0.496000, 22.704821
0.497000, 22.644474
0.498000, 22.585482
0.499000, 22.528005
0.500000, 22.472154
0.501000, 22.418082
0.502000, 22.365883
0.503000, 22.315721
0.504000, 22.267618
0.505000, 22.221620
0.506000, 22.177750
0.507000, 22.135956
0.508000, 22.096187
0.509000, 22.058412
0.510000, 22.022596
0.511000, 21.988755
0.512000, 21.956849
0.513000, 21.926784
0.514000, 21.898428
0.515000, 21.871603
0.516000, 21.846099
0.517000, 21.821658
0.518000, 21.798011
0.519000, 21.774889
0.520000, 21.752038
0.521000, 21.729206
0.522000, 21.706225
0.523000, 21.682895
0.524000, 21.659094
0.525000, 21.634716
0.526000, 21.609677
0.527000, 21.583841
0.528000, 21.557065
0.529000, 21.529256
0.530000, 21.500384
0.531000, 21.470461
0.532000, 21.439566
0.533000, 21.407773
0.534000, 21.375104
0.535000, 21.341670
0.536000, 21.307572
0.537000, 21.272906
0.538000, 21.237797
0.539000, 21.202372
0.540000, 21.166736
0.541000, 21.130956
0.542000, 21.095082
0.543000, 21.059181
0.544000, 21.023241
0.545000, 20.987298
0.546000, 20.951287
0.547000, 20.915211
0.548000, 20.878974
0.549000, 20.842552
0.550000, 20.805932
0.551000, 20.769077
0.552000, 20.731915
0.553000, 20.694394
0.554000, 20.656484
0.555000, 20.618159
0.556000, 20.579387
0.557000, 20.540120
0.558000, 20.500294
0.559000, 20.459787
0.560000, 20.418447
0.561000, 20.376121
0.562000, 20.332715
0.563000, 20.288128
0.564000, 20.242275
0.565000, 20.195098
0.566000, 20.146595
0.567000, 20.096832
0.568000, 20.045876
0.569000, 19.993957
0.570000, 19.941279
0.571000, 19.888095
0.572000, 19.834636
0.573000, 19.781128
0.574000, 19.727822
0.575000, 19.674935
0.576000, 19.622706
0.577000, 19.571314
0.578000, 19.520868
0.579000, 19.471528
0.580000, 19.423386
0.581000, 19.376549
0.582000, 19.331146
0.583000, 19.287306
0.584000, 19.245116
0.585000, 19.204554
0.586000, 19.165550
0.587000, 19.128017
0.588000, 19.091904
0.589000, 19.057111
0.590000, 19.023637
0.591000, 18.991442
0.592000, 18.960494
0.593000, 18.930827
0.594000, 18.902468
0.595000, 18.875449
0.596000, 18.849733
0.597000, 18.825336
0.598000, 18.802264
0.599000, 18.780527
0.600000, 18.760158
0.601000, 18.741143
0.602000, 18.723517
0.603000, 18.707297
0.604000, 18.692479
0.605000, 18.679038
0.606000, 18.666959
0.607000, 18.656247
0.608000, 18.646854
0.609000, 18.638655
0.610000, 18.631558
0.611000, 18.625453
0.612000, 18.620235
0.613000, 18.615747
0.614000, 18.611799
0.615000, 18.608181
0.616000, 18.604636
0.617000, 18.600924
0.618000, 18.596893
0.619000, 18.592407
0.620000, 18.587357
0.621000, 18.581610
0.622000, 18.575009
0.623000, 18.567475
0.624000, 18.558890
0.625000, 18.549126
0.626000, 18.538123
0.627000, 18.525843
0.628000, 18.512236
0.629000, 18.497275
0.630000, 18.480941
0.631000, 18.463250
0.632000, 18.444156
0.633000, 18.423641
0.634000, 18.401688
0.635000, 18.378301
0.636000, 18.353537
0.637000, 18.327373
0.638000, 18.299832
0.639000, 18.270937
0.640000, 18.240757
0.641000, 18.209349
0.642000, 18.176803
0.643000, 18.143272
0.644000, 18.108906
0.645000, 18.073868
0.646000, 18.038317
0.647000, 18.002418
0.648000, 17.966334
0.649000, 17.930201
0.650000, 17.894172
0.651000, 17.858409
0.652000, 17.823048
0.653000, 17.788222
0.654000, 17.754066
0.655000, 17.720767
0.656000, 17.688469
0.657000, 17.657277
0.658000, 17.627281
0.659000, 17.598481
0.660000, 17.570849
0.661000, 17.544320
0.662000, 17.518910
0.663000, 17.494613
0.664000, 17.471416
0.665000, 17.449339
0.666000, 17.428443
0.667000, 17.408756
0.668000, 17.390223
0.669000, 17.372745
0.670000, 17.356264
0.671000, 17.340669
0.672000, 17.325830
0.673000, 17.311663
0.674000, 17.298088
0.675000, 17.284953
0.676000, 17.272140
0.677000, 17.259562
0.678000, 17.247104
0.679000, 17.234698
0.680000, 17.222271
0.681000, 17.209727
0.682000, 17.196978
0.683000, 17.183892
0.684000, 17.170372
0.685000, 17.156293
0.686000, 17.141564
0.687000, 17.126093
0.688000, 17.109841
0.689000, 17.092719
0.690000, 17.074587
0.691000, 17.055374
0.692000, 17.035025
0.693000, 17.013524
0.694000, 16.990818
0.695000, 16.966873
0.696000, 16.941716
0.697000, 16.915423
0.698000, 16.888012
0.699000, 16.859531
0.700000, 16.830032
0.701000, 16.799558
0.702000, 16.768189
0.703000, 16.735922
0.704000, 16.702808
0.705000, 16.668816
0.706000, 16.633909
0.707000, 16.598093
0.708000, 16.561402
0.709000, 16.523866
0.710000, 16.485527
0.711000, 16.446424
0.712000, 16.406645
0.713000, 16.366224
0.714000, 16.325192
0.715000, 16.283445
0.716000, 16.240869
0.717000, 16.197449
0.718000, 16.153213
0.719000, 16.108194
0.720000, 16.062471
0.721000, 16.016200
0.722000, 15.969498
0.723000, 15.922492
0.724000, 15.875283
0.725000, 15.827945
0.726000, 15.780568
0.727000, 15.733333
0.728000, 15.686393
0.729000, 15.639940
0.730000, 15.594044
0.731000, 15.548828
0.732000, 15.504424
0.733000, 15.460966
0.734000, 15.418602
0.735000, 15.377445
0.736000, 15.337580
0.737000, 15.299168
0.738000, 15.262374
0.739000, 15.227361
0.740000, 15.194281
0.741000, 15.163247
0.742000, 15.134329
0.743000, 15.107605
0.744000, 15.083127
0.745000, 15.060993
0.746000, 15.041301
0.747000, 15.024090
0.748000, 15.009423
0.749000, 14.997274
0.750000, 14.987624
0.751000, 14.980382
0.752000, 14.975401
0.753000, 14.972518
0.754000, 14.971584
0.755000, 14.972413
0.756000, 14.974792
0.757000, 14.978524
0.758000, 14.983403
0.759000, 14.989280
0.760000, 14.995953
0.761000, 15.003260
0.762000, 15.011000
0.763000, 15.019055
0.764000, 15.027211
0.765000, 15.035336
0.766000, 15.043335
0.767000, 15.051056
0.768000, 15.058383
0.769000, 15.065212
0.770000, 15.071396
0.771000, 15.076789
0.772000, 15.081309
0.773000, 15.084873
0.774000, 15.087367
0.775000, 15.088749
0.776000, 15.088923
0.777000, 15.087805
0.778000, 15.085363
0.779000, 15.081566
0.780000, 15.076401
0.781000, 15.069851
0.782000, 15.061897
0.783000, 15.052532
0.784000, 15.041769
0.785000, 15.029618
0.786000, 15.016040
0.787000, 15.001012
0.788000, 14.984455
0.789000, 14.966297
0.790000, 14.946465
0.791000, 14.924988
0.792000, 14.901900
0.793000, 14.877240
0.794000, 14.851059
0.795000, 14.823415
0.796000, 14.794324
0.797000, 14.763847
0.798000, 14.732102
0.799000, 14.699218
0.800000, 14.665344
0.801000, 14.630605
0.802000, 14.595142
0.803000, 14.559110
0.804000, 14.522575
0.805000, 14.485621
0.806000, 14.448298
0.807000, 14.410667
0.808000, 14.372772
0.809000, 14.334684
0.810000, 14.296496
0.811000, 14.258333
0.812000, 14.220238
0.813000, 14.182331
0.814000, 14.144695
0.815000, 14.107463
0.816000, 14.070763
0.817000, 14.034715
0.818000, 13.999484
0.819000, 13.965228
0.820000, 13.932109
0.821000, 13.900283
0.822000, 13.869862
0.823000, 13.840978
0.824000, 13.813719
0.825000, 13.788169
0.826000, 13.764364
0.827000, 13.742344
0.828000, 13.722172
0.829000, 13.703849
0.830000, 13.687387
0.831000, 13.672735
0.832000, 13.659865
0.833000, 13.648683
0.834000, 13.639104
0.835000, 13.631002
0.836000, 13.624272
0.837000, 13.618811
0.838000, 13.614570
0.839000, 13.611425
0.840000, 13.609317
0.841000, 13.608099
0.842000, 13.607616
0.843000, 13.607658
0.844000, 13.608082
0.845000, 13.608743
0.846000, 13.609472
0.847000, 13.610145
0.848000, 13.610652
0.849000, 13.610917
0.850000, 13.610844
0.851000, 13.610441
0.852000, 13.609646
0.853000, 13.608446
0.854000, 13.606807
0.855000, 13.604722
0.856000, 13.602224
0.857000, 13.599322
0.858000, 13.596041
0.859000, 13.592370
0.860000, 13.588333
0.861000, 13.583970
0.862000, 13.579288
0.863000, 13.574310
0.864000, 13.569021
0.865000, 13.563399
0.866000, 13.557348
0.867000, 13.550800
0.868000, 13.543727
0.869000, 13.536129
0.870000, 13.528028
0.871000, 13.519436
0.872000, 13.510292
0.873000, 13.500559
0.874000, 13.490240
0.875000, 13.479350
0.876000, 13.467911
0.877000, 13.455931
0.878000, 13.443389
0.879000, 13.430326
0.880000, 13.416710
0.881000, 13.402559
0.882000, 13.387848
0.883000, 13.372604
0.884000, 13.356883
0.885000, 13.340771
0.886000, 13.324370
0.887000, 13.307802
0.888000, 13.291201
0.889000, 13.274799
0.890000, 13.258811
0.891000, 13.243436
0.892000, 13.228843
0.893000, 13.215182
0.894000, 13.202570
0.895000, 13.191105
0.896000, 13.180860
0.897000, 13.171878
0.898000, 13.164231
0.899000, 13.157904
0.900000, 13.152872
0.901000, 13.149037
0.902000, 13.146324
0.903000, 13.144698
0.904000, 13.144057
0.905000, 13.144256
0.906000, 13.145153
0.907000, 13.146612
0.908000, 13.148477
0.909000, 13.150604
0.910000, 13.152799
0.911000, 13.154895
0.912000, 13.156706
0.913000, 13.158052
0.914000, 13.158762
0.915000, 13.158690
0.916000, 13.157686
0.917000, 13.155632
0.918000, 13.152444
0.919000, 13.148101
0.920000, 13.142539
0.921000, 13.135747
0.922000, 13.127709
0.923000, 13.118412
0.924000, 13.107925
0.925000, 13.096291
0.926000, 13.083529
0.927000, 13.069730
0.928000, 13.054957
0.929000, 13.039240
0.930000, 13.022597
0.931000, 13.005077
0.932000, 12.986712
0.933000, 12.967543
0.934000, 12.947665
0.935000, 12.927156
0.936000, 12.906084
0.937000, 12.884523
0.938000, 12.862549
0.939000, 12.840245
0.940000, 12.817638
0.941000, 12.794757
0.942000, 12.771567
0.943000, 12.748041
0.944000, 12.724179
0.945000, 12.699998
0.946000, 12.675488
0.947000, 12.650644
0.948000, 12.625476
0.949000, 12.600013
0.950000, 12.574299
0.951000, 12.548381
0.952000, 12.522279
0.953000, 12.496037
0.954000, 12.469697
0.955000, 12.443322
0.956000, 12.417004
0.957000, 12.390854
0.958000, 12.364984
0.959000, 12.339476
0.960000, 12.314448
0.961000, 12.290062
0.962000, 12.266429
0.963000, 12.243683
0.964000, 12.221937
0.965000, 12.201242
0.966000, 12.181640
0.967000, 12.163175
0.968000, 12.145881
0.969000, 12.129771
0.970000, 12.114835
0.971000, 12.101018
0.972000, 12.088213
0.973000, 12.076329
0.974000, 12.065257
0.975000, 12.054926
0.976000, 12.045289
0.977000, 12.036255
0.978000, 12.027722
0.979000, 12.019592
0.980000, 12.011752
0.981000, 12.004130
0.982000, 11.996674
0.983000, 11.989333
0.984000, 11.982077
0.985000, 11.974862
0.986000, 11.967659
0.987000, 11.960454
0.988000, 11.953228
0.989000, 11.945973
0.990000, 11.938675
0.991000, 11.931326
0.992000, 11.923908
