time, Temp
0.000000, 4.030284
0.001000, 4.030284
0.002000, 4.032982
0.003000, 4.035550
0.004000, 4.037973
0.005000, 4.040238
0.006000, 4.042338
0.007000, 4.044268
0.008000, 4.046029
0.009000, 4.047621
0.010000, 4.049050
0.011000, 4.050322
0.012000, 4.051446
0.013000, 4.052431
0.014000, 4.053286
0.015000, 4.054023
0.016000, 4.054656
0.017000, 4.055197
0.018000, 4.055661
0.019000, 4.056059
0.020000, 4.056403
0.021000, 4.056706
0.022000, 4.056978
0.023000, 4.057231
0.024000, 4.057476
0.025000, 4.057723
0.026000, 4.057980
0.027000, 4.058256
0.028000, 4.058555
0.029000, 4.058885
0.030000, 4.059250
0.031000, 4.059651
0.032000, 4.060093
0.033000, 4.060575
0.034000, 4.061099
0.035000, 4.061663
0.036000, 4.062266
0.037000, 4.062907
0.038000, 4.063583
0.039000, 4.064292
0.040000, 4.065032
0.041000, 4.065797
0.042000, 4.066585
0.043000, 4.067391
0.044000, 4.068211
0.045000, 4.069040
0.046000, 4.069873
0.047000, 4.070706
0.048000, 4.071533
0.049000, 4.072351
0.050000, 4.073155
0.051000, 4.073941
0.052000, 4.074705
0.053000, 4.075445
0.054000, 4.076158
0.055000, 4.076843
0.056000, 4.077497
0.057000, 4.078120
0.058000, 4.078711
0.059000, 4.079270
0.060000, 4.079798
0.061000, 4.080295
0.062000, 4.080763
0.063000, 4.081203
0.064000, 4.081619
0.065000, 4.082012
0.066000, 4.082385
0.067000, 4.082742
0.068000, 4.083084
0.069000, 4.083415
0.070000, 4.083739
0.071000, 4.084056
0.072000, 4.084371
0.073000, 4.084685
0.074000, 4.085002
0.075000, 4.085324
0.076000, 4.085651
0.077000, 4.085985
0.078000, 4.086328
0.079000, 4.086679
0.080000, 4.087040
0.081000, 4.087410
0.082000, 4.087790
0.083000, 4.088180
0.084000, 4.088580
0.085000, 4.088988
0.086000, 4.089403
0.087000, 4.089823
0.088000, 4.090248
0.089000, 4.090675
0.090000, 4.091102
0.091000, 4.091529
0.092000, 4.091952
0.093000, 4.092371
0.094000, 4.092783
0.095000, 4.093187
0.096000, 4.093581
0.097000, 4.093963
0.098000, 4.094331
0.099000, 4.094684
0.100000, 4.095022
0.101000, 4.095342
0.102000, 4.095644
0.103000, 4.095928
0.104000, 4.096193
0.105000, 4.096438
0.106000, 4.096663
0.107000, 4.096868
0.108000, 4.097054
0.109000, 4.097221
0.110000, 4.097369
0.111000, 4.097498
0.112000, 4.097610
0.113000, 4.097705
0.114000, 4.097784
0.115000, 4.097849
0.116000, 4.097901
0.117000, 4.097940
0.118000, 4.097969
0.119000, 4.097988
0.120000, 4.098000
0.121000, 4.098006
0.122000, 4.098008
0.123000, 4.098008
0.124000, 4.098008
0.125000, 4.098010
0.126000, 4.098017
0.127000, 4.098030
0.128000, 4.098051
0.129000, 4.098083
0.130000, 4.098128
0.131000, 4.098185
0.132000, 4.098258
0.133000, 4.098347
0.134000, 4.098452
0.135000, 4.098575
0.136000, 4.098716
0.137000, 4.098874
0.138000, 4.099052
0.139000, 4.099249
0.140000, 4.099464
0.141000, 4.099697
0.142000, 4.099948
0.143000, 4.100215
0.144000, 4.100496
0.145000, 4.100789
0.146000, 4.101091
0.147000, 4.101401
0.148000, 4.101715
0.149000, 4.102032
0.150000, 4.102348
0.151000, 4.102664
0.152000, 4.102975
0.153000, 4.103282
0.154000, 4.103583
0.155000, 4.103878
0.156000, 4.104165
0.157000, 4.104444
0.158000, 4.104715
0.159000, 4.104978
0.160000, 4.105233
0.161000, 4.105479
0.162000, 4.105717
0.163000, 4.105948
0.164000, 4.106171
0.165000, 4.106388
0.166000, 4.106599
0.167000, 4.106804
0.168000, 4.107004
0.169000, 4.107199
0.170000, 4.107389
0.171000, 4.107575
0.172000, 4.107758
0.173000, 4.107937
0.174000, 4.108114
0.175000, 4.108288
0.176000, 4.108460
0.177000, 4.108630
0.178000, 4.108799
0.179000, 4.108967
0.180000, 4.109133
0.181000, 4.109299
0.182000, 4.109464
0.183000, 4.109627
0.184000, 4.109788
0.185000, 4.109947
0.186000, 4.110102
0.187000, 4.110253
0.188000, 4.110400
0.189000, 4.110541
0.190000, 4.110676
0.191000, 4.110805
0.192000, 4.110926
0.193000, 4.111040
0.194000, 4.111147
0.195000, 4.111246
0.196000, 4.111337
0.197000, 4.111421
0.198000, 4.111498
0.199000, 4.111568
0.200000, 4.111633
0.201000, 4.111693
0.202000, 4.111748
0.203000, 4.111801
0.204000, 4.111852
0.205000, 4.111902
0.206000, 4.111953
0.207000, 4.112005
0.208000, 4.112060
0.209000, 4.112118
0.210000, 4.112180
0.211000, 4.112248
0.212000, 4.112321
0.213000, 4.112399
0.214000, 4.112483
0.215000, 4.112573
0.216000, 4.112670
0.217000, 4.112772
0.218000, 4.112881
0.219000, 4.112995
0.220000, 4.113116
0.221000, 4.113243
0.222000, 4.113377
0.223000, 4.113516
0.224000, 4.113661
0.225000, 4.113811
0.226000, 4.113965
0.227000, 4.114124
0.228000, 4.114286
0.229000, 4.114449
0.230000, 4.114614
0.231000, 4.114780
0.232000, 4.114946
0.233000, 4.115112
0.234000, 4.115277
0.235000, 4.115441
0.236000, 4.115604
0.237000, 4.115765
0.238000, 4.115924
0.239000, 4.116079
0.240000, 4.116231
0.241000, 4.116379
0.242000, 4.116522
0.243000, 4.116662
0.244000, 4.116796
0.245000, 4.116927
0.246000, 4.117053
0.247000, 4.117174
0.248000, 4.117290
0.249000, 4.117401
0.250000, 4.117506
0.251000, 4.117605
0.252000, 4.117698
0.253000, 4.117785
0.254000, 4.117864
0.255000, 4.117937
0.256000, 4.118003
0.257000, 4.118062
0.258000, 4.118115
0.259000, 4.118161
0.260000, 4.118201
0.261000, 4.118235
0.262000, 4.118262
0.263000, 4.118284
0.264000, 4.118301
0.265000, 4.118315
0.266000, 4.118325
0.267000, 4.118335
0.268000, 4.118345
0.269000, 4.118356
0.270000, 4.118370
0.271000, 4.118387
0.272000, 4.118407
0.273000, 4.118431
0.274000, 4.118460
0.275000, 4.118493
0.276000, 4.118531
0.277000, 4.118574
0.278000, 4.118622
0.279000, 4.118675
0.280000, 4.118733
0.281000, 4.118796
0.282000, 4.118864
0.283000, 4.118936
0.284000, 4.119013
0.285000, 4.119095
0.286000, 4.119180
0.287000, 4.119268
0.288000, 4.119359
0.289000, 4.119452
0.290000, 4.119547
0.291000, 4.119641
0.292000, 4.119735
0.293000, 4.119827
0.294000, 4.119916
0.295000, 4.120000
0.296000, 4.120079
0.297000, 4.120152
0.298000, 4.120220
0.299000, 4.120280
0.300000, 4.120335
0.301000, 4.120383
0.302000, 4.120424
0.303000, 4.120459
0.304000, 4.120489
0.305000, 4.120512
0.306000, 4.120531
0.307000, 4.120545
0.308000, 4.120555
0.309000, 4.120563
0.310000, 4.120569
0.311000, 4.120573
0.312000, 4.120577
0.313000, 4.120582
0.314000, 4.120587
0.315000, 4.120594
0.316000, 4.120601
0.317000, 4.120610
0.318000, 4.120620
0.319000, 4.120631
0.320000, 4.120644
0.321000, 4.120659
0.322000, 4.120674
0.323000, 4.120690
0.324000, 4.120706
0.325000, 4.120721
0.326000, 4.120734
0.327000, 4.120746
0.328000, 4.120756
0.329000, 4.120765
0.330000, 4.120770
0.331000, 4.120774
0.332000, 4.120773
0.333000, 4.120770
0.334000, 4.120762
0.335000, 4.120749
0.336000, 4.120732
0.337000, 4.120709
0.338000, 4.120682
0.339000, 4.120651
0.340000, 4.120615
0.341000, 4.120576
0.342000, 4.120533
0.343000, 4.120488
0.344000, 4.120442
0.345000, 4.120395
0.346000, 4.120349
0.347000, 4.120305
0.348000, 4.120263
0.349000, 4.120225
0.350000, 4.120192
0.351000, 4.120165
0.352000, 4.120143
0.353000, 4.120129
0.354000, 4.120123
0.355000, 4.120126
0.356000, 4.120138
0.357000, 4.120160
0.358000, 4.120194
0.359000, 4.120239
0.360000, 4.120297
0.361000, 4.120367
0.362000, 4.120451
0.363000, 4.120549
0.364000, 4.120659
0.365000, 4.120783
0.366000, 4.120919
0.367000, 4.121067
0.368000, 4.121227
0.369000, 4.121396
0.370000, 4.121576
0.371000, 4.121763
0.372000, 4.121958
0.373000, 4.122158
0.374000, 4.122364
0.375000, 4.122574
0.376000, 4.122787
0.377000, 4.123003
0.378000, 4.123222
0.379000, 4.123442
0.380000, 4.123663
0.381000, 4.123884
0.382000, 4.124105
0.383000, 4.124326
0.384000, 4.124545
0.385000, 4.124763
0.386000, 4.124979
0.387000, 4.125194
0.388000, 4.125408
0.389000, 4.125620
0.390000, 4.125831
0.391000, 4.126040
0.392000, 4.126247
0.393000, 4.126451
0.394000, 4.126652
0.395000, 4.126849
0.396000, 4.127043
0.397000, 4.127232
0.398000, 4.127416
0.399000, 4.127595
0.400000, 4.127769
0.401000, 4.127935
0.402000, 4.128093
0.403000, 4.128242
0.404000, 4.128382
0.405000, 4.128512
0.406000, 4.128632
0.407000, 4.128740
0.408000, 4.128838
0.409000, 4.128926
0.410000, 4.129003
0.411000, 4.129070
0.412000, 4.129127
0.413000, 4.129174
0.414000, 4.129213
0.415000, 4.129242
0.416000, 4.129261
0.417000, 4.129271
0.418000, 4.129271
0.419000, 4.129262
0.420000, 4.129244
0.421000, 4.129218
0.422000, 4.129185
0.423000, 4.129145
0.424000, 4.129101
0.425000, 4.129053
0.426000, 4.129003
0.427000, 4.128952
0.428000, 4.128901
0.429000, 4.128851
0.430000, 4.128803
0.431000, 4.128758
0.432000, 4.128717
0.433000, 4.128680
0.434000, 4.128648
0.435000, 4.128622
0.436000, 4.128604
0.437000, 4.128593
0.438000, 4.128590
0.439000, 4.128596
0.440000, 4.128611
0.441000, 4.128635
0.442000, 4.128667
0.443000, 4.128709
0.444000, 4.128759
0.445000, 4.128819
0.446000, 4.128887
0.447000, 4.128962
0.448000, 4.129045
0.449000, 4.129135
0.450000, 4.129230
0.451000, 4.129330
0.452000, 4.129434
0.453000, 4.129542
0.454000, 4.129652
0.455000, 4.129765
0.456000, 4.129879
0.457000, 4.129995
0.458000, 4.130111
0.459000, 4.130227
0.460000, 4.130343
0.461000, 4.130458
0.462000, 4.130571
0.463000, 4.130682
0.464000, 4.130790
0.465000, 4.130895
0.466000, 4.130996
0.467000, 4.131093
0.468000, 4.131187
0.469000, 4.131279
0.470000, 4.131368
0.471000, 4.131455
0.472000, 4.131542
0.473000, 4.131629
0.474000, 4.131716
0.475000, 4.131805
0.476000, 4.131897
0.477000, 4.131990
0.478000, 4.132087
0.479000, 4.132188
0.480000, 4.132293
0.481000, 4.132403
0.482000, 4.132518
0.483000, 4.132639
0.484000, 4.132766
0.485000, 4.132896
0.486000, 4.133030
0.487000, 4.133167
0.488000, 4.133306
0.489000, 4.133447
0.490000, 4.133588
0.491000, 4.133729
0.492000, 4.133869
0.493000, 4.134006
0.494000, 4.134141
0.495000, 4.134272
0.496000, 4.134399
0.497000, 4.134521
0.498000, 4.134639
0.499000, 4.134752
0.500000, 4.134858
0.501000, 4.134959
0.502000, 4.135051
0.503000, 4.135135
0.504000, 4.135210
0.505000, 4.135276
0.506000, 4.135331
0.507000, 4.135375
0.508000, 4.135408
0.509000, 4.135430
0.510000, 4.135441
0.511000, 4.135442
0.512000, 4.135433
0.513000, 4.135414
0.514000, 4.135385
0.515000, 4.135347
0.516000, 4.135302
0.517000, 4.135249
0.518000, 4.135189
0.519000, 4.135123
0.520000, 4.135052
0.521000, 4.134976
0.522000, 4.134895
0.523000, 4.134809
0.524000, 4.134717
0.525000, 4.134619
0.526000, 4.134515
0.527000, 4.134405
0.528000, 4.134290
0.529000, 4.134169
0.530000, 4.134042
0.531000, 4.133911
0.532000, 4.133775
0.533000, 4.133634
0.534000, 4.133487
0.535000, 4.133336
0.536000, 4.133181
0.537000, 4.133023
0.538000, 4.132861
0.539000, 4.132697
0.540000, 4.132532
0.541000, 4.132367
0.542000, 4.132203
0.543000, 4.132042
0.544000, 4.131884
0.545000, 4.131731
0.546000, 4.131584
0.547000, 4.131444
0.548000, 4.131311
0.549000, 4.131186
0.550000, 4.131069
0.551000, 4.130960
0.552000, 4.130858
0.553000, 4.130765
0.554000, 4.130678
0.555000, 4.130598
0.556000, 4.130526
0.557000, 4.130460
0.558000, 4.130400
0.559000, 4.130348
0.560000, 4.130301
0.561000, 4.130260
0.562000, 4.130224
0.563000, 4.130192
0.564000, 4.130163
0.565000, 4.130137
0.566000, 4.130114
0.567000, 4.130092
0.568000, 4.130072
0.569000, 4.130052
0.570000, 4.130033
0.571000, 4.130014
0.572000, 4.129993
0.573000, 4.129971
0.574000, 4.129946
0.575000, 4.129918
0.576000, 4.129887
0.577000, 4.129851
0.578000, 4.129813
0.579000, 4.129770
0.580000, 4.129725
0.581000, 4.129676
0.582000, 4.129626
0.583000, 4.129573
0.584000, 4.129520
0.585000, 4.129466
0.586000, 4.129412
0.587000, 4.129360
0.588000, 4.129309
0.589000, 4.129260
0.590000, 4.129214
0.591000, 4.129172
0.592000, 4.129134
0.593000, 4.129102
0.594000, 4.129074
0.595000, 4.129052
0.596000, 4.129036
0.597000, 4.129026
0.598000, 4.129022
0.599000, 4.129025
0.600000, 4.129034
0.601000, 4.129050
0.602000, 4.129072
0.603000, 4.129101
0.604000, 4.129136
0.605000, 4.129179
0.606000, 4.129228
0.607000, 4.129285
0.608000, 4.129347
0.609000, 4.129415
0.610000, 4.129488
0.611000, 4.129565
0.612000, 4.129645
0.613000, 4.129728
0.614000, 4.129811
0.615000, 4.129895
0.616000, 4.129979
0.617000, 4.130062
0.618000, 4.130142
0.619000, 4.130220
0.620000, 4.130295
0.621000, 4.130366
0.622000, 4.130432
0.623000, 4.130494
0.624000, 4.130551
0.625000, 4.130602
0.626000, 4.130648
0.627000, 4.130686
0.628000, 4.130718
0.629000, 4.130742
0.630000, 4.130758
0.631000, 4.130767
0.632000, 4.130767
0.633000, 4.130759
0.634000, 4.130745
0.635000, 4.130725
0.636000, 4.130700
0.637000, 4.130673
0.638000, 4.130644
0.639000, 4.130616
0.640000, 4.130588
0.641000, 4.130564
0.642000, 4.130543
0.643000, 4.130528
0.644000, 4.130519
0.645000, 4.130517
0.646000, 4.130523
0.647000, 4.130535
0.648000, 4.130555
0.649000, 4.130583
0.650000, 4.130618
0.651000, 4.130660
0.652000, 4.130710
0.653000, 4.130767
0.654000, 4.130831
0.655000, 4.130901
0.656000, 4.130978
0.657000, 4.131061
0.658000, 4.131151
0.659000, 4.131247
0.660000, 4.131349
0.661000, 4.131456
0.662000, 4.131569
0.663000, 4.131685
0.664000, 4.131805
0.665000, 4.131926
0.666000, 4.132049
0.667000, 4.132173
0.668000, 4.132298
0.669000, 4.132423
0.670000, 4.132548
0.671000, 4.132673
0.672000, 4.132796
0.673000, 4.132918
0.674000, 4.133037
0.675000, 4.133154
0.676000, 4.133269
0.677000, 4.133380
0.678000, 4.133489
0.679000, 4.133595
0.680000, 4.133700
0.681000, 4.133805
0.682000, 4.133909
0.683000, 4.134014
0.684000, 4.134120
0.685000, 4.134228
0.686000, 4.134338
0.687000, 4.134449
0.688000, 4.134562
0.689000, 4.134677
0.690000, 4.134793
0.691000, 4.134910
0.692000, 4.135027
0.693000, 4.135144
0.694000, 4.135260
0.695000, 4.135375
0.696000, 4.135487
0.697000, 4.135597
0.698000, 4.135705
0.699000, 4.135809
0.700000, 4.135911
0.701000, 4.136009
0.702000, 4.136104
0.703000, 4.136197
0.704000, 4.136287
0.705000, 4.136375
0.706000, 4.136461
0.707000, 4.136545
0.708000, 4.136627
0.709000, 4.136709
0.710000, 4.136788
0.711000, 4.136867
0.712000, 4.136944
0.713000, 4.137020
0.714000, 4.137096
0.715000, 4.137170
0.716000, 4.137244
0.717000, 4.137316
0.718000, 4.137387
0.719000, 4.137455
0.720000, 4.137521
0.721000, 4.137585
0.722000, 4.137645
0.723000, 4.137704
0.724000, 4.137759
0.725000, 4.137812
0.726000, 4.137863
0.727000, 4.137912
0.728000, 4.137960
0.729000, 4.138007
0.730000, 4.138054
0.731000, 4.138101
0.732000, 4.138149
0.733000, 4.138197
0.734000, 4.138246
0.735000, 4.138295
0.736000, 4.138346
0.737000, 4.138397
0.738000, 4.138449
0.739000, 4.138501
0.740000, 4.138555
0.741000, 4.138609
0.742000, 4.138664
0.743000, 4.138720
0.744000, 4.138775
0.745000, 4.138831
0.746000, 4.138886
0.747000, 4.138940
0.748000, 4.138991
0.749000, 4.139041
0.750000, 4.139087
0.751000, 4.139131
0.752000, 4.139171
0.753000, 4.139207
0.754000, 4.139237
0.755000, 4.139262
0.756000, 4.139280
0.757000, 4.139291
0.758000, 4.139296
0.759000, 4.139295
0.760000, 4.139288
0.761000, 4.139276
0.762000, 4.139258
0.763000, 4.139236
0.764000, 4.139210
0.765000, 4.139179
0.766000, 4.139146
0.767000, 4.139109
0.768000, 4.139070
0.769000, 4.139028
0.770000, 4.138985
0.771000, 4.138941
0.772000, 4.138895
0.773000, 4.138849
0.774000, 4.138804
0.775000, 4.138759
0.776000, 4.138716
0.777000, 4.138676
0.778000, 4.138639
0.779000, 4.138605
0.780000, 4.138575
0.781000, 4.138550
0.782000, 4.138528
0.783000, 4.138511
0.784000, 4.138497
0.785000, 4.138487
0.786000, 4.138482
0.787000, 4.138482
0.788000, 4.138487
0.789000, 4.138497
0.790000, 4.138514
0.791000, 4.138537
0.792000, 4.138566
0.793000, 4.138603
0.794000, 4.138647
0.795000, 4.138699
0.796000, 4.138758
0.797000, 4.138826
0.798000, 4.138902
0.799000, 4.138987
0.800000, 4.139079
0.801000, 4.139180
0.802000, 4.139288
0.803000, 4.139404
0.804000, 4.139528
0.805000, 4.139659
0.806000, 4.139797
0.807000, 4.139941
0.808000, 4.140090
0.809000, 4.140244
0.810000, 4.140402
0.811000, 4.140563
0.812000, 4.140726
0.813000, 4.140891
0.814000, 4.141056
0.815000, 4.141222
0.816000, 4.141387
0.817000, 4.141552
0.818000, 4.141715
0.819000, 4.141875
0.820000, 4.142031
0.821000, 4.142183
0.822000, 4.142330
0.823000, 4.142470
0.824000, 4.142605
0.825000, 4.142732
0.826000, 4.142853
0.827000, 4.142966
0.828000, 4.143073
0.829000, 4.143173
0.830000, 4.143266
0.831000, 4.143355
0.832000, 4.143438
0.833000, 4.143517
0.834000, 4.143592
0.835000, 4.143664
0.836000, 4.143732
0.837000, 4.143798
0.838000, 4.143862
0.839000, 4.143921
0.840000, 4.143978
0.841000, 4.144031
0.842000, 4.144079
0.843000, 4.144123
0.844000, 4.144161
0.845000, 4.144192
0.846000, 4.144215
0.847000, 4.144229
0.848000, 4.144234
0.849000, 4.144227
0.850000, 4.144210
0.851000, 4.144180
0.852000, 4.144138
0.853000, 4.144082
0.854000, 4.144012
0.855000, 4.143928
0.856000, 4.143829
0.857000, 4.143713
0.858000, 4.143582
0.859000, 4.143435
0.860000, 4.143272
0.861000, 4.143094
0.862000, 4.142901
0.863000, 4.142693
0.864000, 4.142472
0.865000, 4.142239
0.866000, 4.141994
0.867000, 4.141740
0.868000, 4.141479
0.869000, 4.141211
0.870000, 4.140940
0.871000, 4.140667
0.872000, 4.140395
0.873000, 4.140126
0.874000, 4.139861
0.875000, 4.139602
0.876000, 4.139351
0.877000, 4.139110
0.878000, 4.138880
0.879000, 4.138662
0.880000, 4.138457
0.881000, 4.138264
0.882000, 4.138085
0.883000, 4.137920
0.884000, 4.137768
0.885000, 4.137627
0.886000, 4.137499
0.887000, 4.137382
0.888000, 4.137274
0.889000, 4.137177
0.890000, 4.137089
0.891000, 4.137010
0.892000, 4.136939
0.893000, 4.136876
0.894000, 4.136820
0.895000, 4.136770
0.896000, 4.136725
0.897000, 4.136683
0.898000, 4.136644
0.899000, 4.136607
0.900000, 4.136569
0.901000, 4.136531
0.902000, 4.136490
0.903000, 4.136446
0.904000, 4.136397
0.905000, 4.136342
0.906000, 4.136280
0.907000, 4.136210
0.908000, 4.136132
0.909000, 4.136045
0.910000, 4.135949
0.911000, 4.135843
0.912000, 4.135728
0.913000, 4.135604
0.914000, 4.135472
0.915000, 4.135332
0.916000, 4.135185
0.917000, 4.135032
0.918000, 4.134874
0.919000, 4.134711
0.920000, 4.134545
0.921000, 4.134376
0.922000, 4.134207
0.923000, 4.134037
0.924000, 4.133869
0.925000, 4.133703
0.926000, 4.133541
0.927000, 4.133384
0.928000, 4.133234
0.929000, 4.133090
0.930000, 4.132956
0.931000, 4.132830
0.932000, 4.132714
0.933000, 4.132608
0.934000, 4.132513
0.935000, 4.132430
0.936000, 4.132360
0.937000, 4.132302
0.938000, 4.132259
0.939000, 4.132230
0.940000, 4.132215
0.941000, 4.132214
0.942000, 4.132227
0.943000, 4.132255
0.944000, 4.132296
0.945000, 4.132352
0.946000, 4.132421
0.947000, 4.132504
0.948000, 4.132601
0.949000, 4.132711
0.950000, 4.132834
0.951000, 4.132968
0.952000, 4.133115
0.953000, 4.133271
0.954000, 4.133437
0.955000, 4.133611
0.956000, 4.133792
0.957000, 4.133978
0.958000, 4.134169
0.959000, 4.134362
0.960000, 4.134558
0.961000, 4.134753
0.962000, 4.134947
0.963000, 4.135139
0.964000, 4.135328
0.965000, 4.135511
0.966000, 4.135689
0.967000, 4.135859
0.968000, 4.136020
0.969000, 4.136173
0.970000, 4.136314
0.971000, 4.136445
0.972000, 4.136564
0.973000, 4.136672
0.974000, 4.136769
0.975000, 4.136854
0.976000, 4.136928
0.977000, 4.136990
0.978000, 4.137043
0.979000, 4.137085
0.980000, 4.137117
0.981000, 4.137141
0.982000, 4.137156
0.983000, 4.137164
0.984000, 4.137164
0.985000, 4.137160
0.986000, 4.137150
0.987000, 4.137137
0.988000, 4.137122
0.989000, 4.137106
0.990000, 4.137092
0.991000, 4.137080
0.992000, 4.137072
0.993000, 4.137070
0.994000, 4.137075
0.995000, 4.137087
0.996000, 4.137108
0.997000, 4.137136
0.998000, 4.137174
0.999000, 4.137220
1.000000, 4.137277
1.001000, 4.137343
1.002000, 4.137419
1.003000, 4.137504
1.004000, 4.137598
1.005000, 4.137701
1.006000, 4.137813
1.007000, 4.137934
1.008000, 4.138063
1.009000, 4.138198
1.010000, 4.138340
1.011000, 4.138486
1.012000, 4.138635
1.013000, 4.138786
1.014000, 4.138935
1.015000, 4.139082
1.016000, 4.139225
1.017000, 4.139361
1.018000, 4.139489
1.019000, 4.139606
1.020000, 4.139711
1.021000, 4.139803
1.022000, 4.139880
1.023000, 4.139942
1.024000, 4.139990
1.025000, 4.140022
1.026000, 4.140040
1.027000, 4.140044
1.028000, 4.140034
1.029000, 4.140012
1.030000, 4.139979
1.031000, 4.139934
1.032000, 4.139880
1.033000, 4.139816
1.034000, 4.139744
1.035000, 4.139666
1.036000, 4.139582
1.037000, 4.139495
1.038000, 4.139405
1.039000, 4.139314
1.040000, 4.139223
1.041000, 4.139133
1.042000, 4.139046
1.043000, 4.138962
1.044000, 4.138883
1.045000, 4.138809
1.046000, 4.138742
1.047000, 4.138681
1.048000, 4.138627
1.049000, 4.138580
1.050000, 4.138540
1.051000, 4.138508
