time, Temp
0.000000, 0.000000
0.001000, 6.813061
0.002000, 70.782585
0.003000, 151.975974
0.004000, 245.357652
0.005000, 347.019049
0.006000, 453.598089
0.007000, 562.166818
0.008000, 670.212509
0.009000, 775.612404
0.010000, 876.597824
0.011000, 971.720773
0.012000, 1059.826204
0.013000, 1140.047651
0.014000, 1211.803448
0.015000, 1274.764710
0.016000, 1328.804624
0.017000, 1373.936891
0.018000, 1410.274003
0.019000, 1438.019232
0.020000, 1457.465094
0.021000, 1468.993923
0.022000, 1473.054526
0.023000, 1470.126127
0.024000, 1460.705371
0.025000, 1445.299162
0.026000, 1424.411948
0.027000, 1398.556396
0.028000, 1368.274808
0.029000, 1334.144312
0.030000, 1296.773266
0.031000, 1256.793640
0.032000, 1214.858258
0.033000, 1171.643440
0.034000, 1127.843409
0.035000, 1084.155189
0.036000, 1041.268015
0.037000, 999.855069
0.038000, 960.561077
0.039000, 923.989880
0.040000, 890.688216
0.041000, 861.129274
0.042000, 835.702086
0.043000, 814.704303
0.044000, 798.336962
0.045000, 786.701464
0.046000, 779.797988
0.047000, 777.526149
0.048000, 779.692076
0.049000, 786.018948
0.050000, 796.158933
0.051000, 809.704626
0.052000, 826.200380
0.053000, 845.157691
0.054000, 866.068840
0.055000, 888.418410
0.056000, 911.692609
0.057000, 935.391523
0.058000, 959.042052
0.059000, 982.208380
0.060000, 1004.498377
0.061000, 1025.569641
0.062000, 1045.131742
0.063000, 1062.942915
0.064000, 1078.809651
0.065000, 1092.579646
0.066000, 1104.133708
0.067000, 1113.386195
0.068000, 1120.288725
0.069000, 1124.831256
0.070000, 1127.041539
0.071000, 1126.976889
0.072000, 1124.718315
0.073000, 1120.369618
0.074000, 1114.052076
0.075000, 1105.903522
0.076000, 1096.078847
0.077000, 1084.744286
0.078000, 1072.071665
0.079000, 1058.239409
0.080000, 1043.434863
0.081000, 1027.855903
0.082000, 1011.710480
0.083000, 995.212448
0.084000, 978.578607
0.085000, 962.028540
0.086000, 945.783939
0.087000, 930.064794
0.088000, 915.087785
0.089000, 901.061437
0.090000, 888.178852
0.091000, 876.610116
0.092000, 866.501912
0.093000, 857.981848
0.094000, 851.154651
0.095000, 846.101557
0.096000, 842.881026
0.097000, 841.531364
0.098000, 842.073025
0.099000, 844.507590
0.100000, 848.815643
0.101000, 854.951783
0.102000, 862.848760
0.103000, 872.426284
0.104000, 883.589656
0.105000, 896.225811
0.106000, 910.203023
0.107000, 925.375327
0.108000, 941.590981
0.109000, 958.696366
0.110000, 976.533265
0.111000, 994.937297
0.112000, 1013.737511
0.113000, 1032.757505
0.114000, 1051.817285
0.115000, 1070.736399
0.116000, 1089.340786
0.117000, 1107.462711
0.118000, 1124.939055
0.119000, 1141.617667
0.120000, 1157.357075
0.121000, 1172.023623
0.122000, 1185.498586
0.123000, 1197.681907
0.124000, 1208.487495
0.125000, 1217.841998
0.126000, 1225.686426
0.127000, 1231.973919
0.128000, 1236.672002
0.129000, 1239.764371
0.130000, 1241.253571
0.131000, 1241.167817
0.132000, 1239.564123
0.133000, 1236.527524
0.134000, 1232.164573
0.135000, 1226.597264
0.136000, 1219.963042
0.137000, 1212.415119
0.138000, 1204.126448
0.139000, 1195.294385
0.140000, 1186.137896
0.141000, 1176.887822
0.142000, 1167.773238
0.143000, 1159.008384
0.144000, 1150.786163
0.145000, 1143.274324
0.146000, 1136.612645
0.147000, 1130.913257
0.148000, 1126.254179
0.149000, 1122.667034
0.150000, 1120.130836
0.151000, 1118.580921
0.152000, 1117.922582
0.153000, 1118.037006
0.154000, 1118.780649
0.155000, 1119.994143
0.156000, 1121.522169
0.157000, 1123.220613
0.158000, 1124.961199
0.159000, 1126.646635
0.160000, 1128.226615
0.161000, 1129.703978
0.162000, 1131.119503
0.163000, 1132.540773
0.164000, 1134.063693
0.165000, 1135.800416
0.166000, 1137.863325
0.167000, 1140.351862
0.168000, 1143.336588
0.169000, 1146.846445
0.170000, 1150.865387
0.171000, 1155.336610
0.172000, 1160.166051
0.173000, 1165.227728
0.174000, 1170.372854
0.175000, 1175.438205
0.176000, 1180.253424
0.177000, 1184.655987
0.178000, 1188.508252
0.179000, 1191.705498
0.180000, 1194.179047
0.181000, 1195.894517
0.182000, 1196.843846
0.183000, 1197.047473
0.184000, 1196.561638
0.185000, 1195.471375
0.186000, 1193.880990
0.187000, 1191.902070
0.188000, 1189.648440
0.189000, 1187.236345
0.190000, 1184.771590
0.191000, 1182.345232
0.192000, 1180.044391
0.193000, 1177.961823
0.194000, 1176.193172
0.195000, 1174.824017
0.196000, 1173.925234
0.197000, 1173.559205
0.198000, 1173.782231
0.199000, 1174.635815
0.200000, 1176.138660
0.201000, 1178.285635
0.202000, 1181.054637
0.203000, 1184.412784
0.204000, 1188.313312
0.205000, 1192.687529
0.206000, 1197.449137
0.207000, 1202.507803
0.208000, 1207.777223
0.209000, 1213.183503
0.210000, 1218.673806
0.211000, 1224.218424
0.212000, 1229.808027
0.213000, 1235.444412
0.214000, 1241.132420
0.215000, 1246.882109
0.216000, 1252.700344
0.217000, 1258.582912
0.218000, 1264.520868
0.219000, 1270.496568
0.220000, 1276.483394
0.221000, 1282.451988
0.222000, 1288.365003
0.223000, 1294.168719
0.224000, 1299.789953
0.225000, 1305.140913
0.226000, 1310.127575
0.227000, 1314.654153
0.228000, 1318.631827
0.229000, 1321.988905
0.230000, 1324.664736
0.231000, 1326.605703
0.232000, 1327.778757
0.233000, 1328.178124
0.234000, 1327.816306
0.235000, 1326.719387
0.236000, 1324.919877
0.237000, 1322.454082
0.238000, 1319.366689
0.239000, 1315.704212
0.240000, 1311.513695
0.241000, 1306.848242
0.242000, 1301.763771
0.243000, 1296.308938
0.244000, 1290.518492
0.245000, 1284.415459
0.246000, 1278.010542
0.247000, 1271.306645
0.248000, 1264.305514
0.249000, 1257.012392
0.250000, 1249.448891
0.251000, 1241.655691
0.252000, 1233.689812
0.253000, 1225.626726
0.254000, 1217.561722
0.255000, 1209.613517
0.256000, 1201.923725
0.257000, 1194.646070
0.258000, 1187.935491
0.259000, 1181.949241
0.260000, 1176.844749
0.261000, 1172.764960
0.262000, 1169.827698
0.263000, 1168.117133
0.264000, 1167.677567
0.265000, 1168.510013
0.266000, 1170.574992
0.267000, 1173.807650
0.268000, 1178.124305
0.269000, 1183.420011
0.270000, 1189.577373
0.271000, 1196.472194
0.272000, 1203.973181
0.273000, 1211.945637
0.274000, 1220.251465
0.275000, 1228.756183
0.276000, 1237.335977
0.277000, 1245.872667
0.278000, 1254.252928
0.279000, 1262.368936
0.280000, 1270.119960
0.281000, 1277.419231
0.282000, 1284.194521
0.283000, 1290.384698
0.284000, 1295.940417
0.285000, 1300.824566
0.286000, 1305.012810
0.287000, 1308.497415
0.288000, 1311.288876
0.289000, 1313.413930
0.290000, 1314.910698
0.291000, 1315.824738
0.292000, 1316.209522
0.293000, 1316.127724
0.294000, 1315.649653
0.295000, 1314.851567
0.296000, 1313.816968
0.297000, 1312.635747
0.298000, 1311.393226
0.299000, 1310.155755
0.300000, 1308.967169
0.301000, 1307.853260
0.302000, 1306.827567
0.303000, 1305.890242
0.304000, 1305.022530
0.305000, 1304.186182
0.306000, 1303.321858
0.307000, 1302.349710
0.308000, 1301.178120
0.309000, 1299.718381
0.310000, 1297.896174
0.311000, 1295.655434
0.312000, 1292.959304
0.313000, 1289.799275
0.314000, 1286.197701
0.315000, 1282.206175
0.316000, 1277.910024
0.317000, 1273.421933
0.318000, 1268.873600
0.319000, 1264.408145
0.320000, 1260.171360
0.321000, 1256.304968
0.322000, 1252.938320
0.323000, 1250.178869
0.324000, 1248.105033
0.325000, 1246.766314
0.326000, 1246.181031
0.327000, 1246.332124
0.328000, 1247.171768
0.329000, 1248.631148
0.330000, 1250.628056
0.331000, 1253.072068
0.332000, 1255.874268
0.333000, 1258.954047
0.334000, 1262.237412
0.335000, 1265.653302
0.336000, 1269.131497
0.337000, 1272.608574
0.338000, 1276.036034
0.339000, 1279.377562
0.340000, 1282.607263
0.341000, 1285.710608
0.342000, 1288.681615
0.343000, 1291.527214
0.344000, 1294.268588
0.345000, 1296.931587
0.346000, 1299.541860
0.347000, 1302.114473
0.348000, 1304.649026
0.349000, 1307.140260
0.350000, 1309.567392
0.351000, 1311.887751
0.352000, 1314.052281
0.353000, 1316.011548
0.354000, 1317.715761
0.355000, 1319.116461
0.356000, 1320.173348
0.357000, 1320.862346
0.358000, 1321.172045
0.359000, 1321.098571
0.360000, 1320.645754
0.361000, 1319.821811
0.362000, 1318.635456
0.363000, 1317.093095
0.364000, 1315.194674
0.365000, 1312.927726
0.366000, 1310.273354
0.367000, 1307.217411
0.368000, 1303.750334
0.369000, 1299.868160
0.370000, 1295.574576
0.371000, 1290.883863
0.372000, 1285.832831
0.373000, 1280.486405
0.374000, 1274.937275
0.375000, 1269.307702
0.376000, 1263.747324
0.377000, 1258.419656
0.378000, 1253.487307
0.379000, 1249.103732
0.380000, 1245.408267
0.381000, 1242.532155
0.382000, 1240.601001
0.383000, 1239.727243
0.384000, 1240.003374
0.385000, 1241.487585
0.386000, 1244.193440
0.387000, 1248.092249
0.388000, 1253.108553
0.389000, 1259.120200
0.390000, 1265.965921
0.391000, 1273.452823
0.392000, 1281.367910
0.393000, 1289.486840
0.394000, 1297.586588
0.395000, 1305.460719
0.396000, 1312.930486
0.397000, 1319.847573
0.398000, 1326.087173
0.399000, 1331.550563
0.400000, 1336.176307
0.401000, 1339.942748
0.402000, 1342.864739
0.403000, 1344.981869
0.404000, 1346.352555
0.405000, 1347.046303
0.406000, 1347.131458
0.407000, 1346.672795
0.408000, 1345.727033
0.409000, 1344.343718
0.410000, 1342.561707
0.411000, 1340.396614
0.412000, 1337.842172
0.413000, 1334.880438
0.414000, 1331.486914
0.415000, 1327.631955
0.416000, 1323.287034
0.417000, 1318.431184
0.418000, 1313.049899
0.419000, 1307.137792
0.420000, 1300.703177
0.421000, 1293.776255
0.422000, 1286.411125
0.423000, 1278.685710
0.424000, 1270.704873
0.425000, 1262.597707
0.426000, 1254.516533
0.427000, 1246.626046
0.428000, 1239.086905
0.429000, 1232.043630
0.430000, 1225.623037
0.431000, 1219.934585
0.432000, 1215.069956
0.433000, 1211.107575
0.434000, 1208.109736
0.435000, 1206.112289
0.436000, 1205.118453
0.437000, 1205.104542
0.438000, 1206.022190
0.439000, 1207.799964
0.440000, 1210.355390
0.441000, 1213.598280
0.442000, 1217.433824
0.443000, 1221.774606
0.444000, 1226.545175
0.445000, 1231.677923
0.446000, 1237.112749
0.447000, 1242.799227
0.448000, 1248.696282
0.449000, 1254.767163
0.450000, 1260.964904
0.451000, 1267.237041
0.452000, 1273.530252
0.453000, 1279.786185
0.454000, 1285.939187
0.455000, 1291.917703
0.456000, 1297.653904
0.457000, 1303.082724
0.458000, 1308.136040
0.459000, 1312.746393
0.460000, 1316.852375
0.461000, 1320.392714
0.462000, 1323.306565
0.463000, 1325.541501
0.464000, 1327.053757
0.465000, 1327.804087
0.466000, 1327.759837
0.467000, 1326.888048
0.468000, 1325.155548
0.469000, 1322.546424
0.470000, 1319.074765
0.471000, 1314.787263
0.472000, 1309.756482
0.473000, 1304.078192
0.474000, 1297.875231
0.475000, 1291.293769
0.476000, 1284.493246
0.477000, 1277.639536
0.478000, 1270.900254
0.479000, 1264.433766
0.480000, 1258.381551
0.481000, 1252.869234
0.482000, 1248.002501
0.483000, 1243.864551
0.484000, 1240.514163
0.485000, 1237.986525
0.486000, 1236.298632
0.487000, 1235.445481
0.488000, 1235.391015
0.489000, 1236.076526
0.490000, 1237.428563
0.491000, 1239.362374
0.492000, 1241.790285
0.493000, 1244.628741
0.494000, 1247.802074
0.495000, 1251.238122
0.496000, 1254.868515
0.497000, 1258.631633
0.498000, 1262.469470
0.499000, 1266.324012
0.500000, 1270.137896
0.501000, 1273.856723
0.502000, 1277.434003
0.503000, 1280.831781
0.504000, 1284.018775
0.505000, 1286.975458
0.506000, 1289.693392
0.507000, 1292.170550
0.508000, 1294.415832
0.509000, 1296.449652
0.510000, 1298.293234
0.511000, 1299.964450
0.512000, 1301.483629
0.513000, 1302.874799
0.514000, 1304.162974
0.515000, 1305.368801
0.516000, 1306.510412
0.517000, 1307.606537
0.518000, 1308.669326
0.519000, 1309.704772
0.520000, 1310.721251
0.521000, 1311.734098
0.522000, 1312.763292
0.523000, 1313.828987
0.524000, 1314.949500
0.525000, 1316.137813
0.526000, 1317.396653
0.527000, 1318.713514
0.528000, 1320.059028
0.529000, 1321.396422
0.530000, 1322.693035
0.531000, 1323.921194
0.532000, 1325.058098
0.533000, 1326.085789
0.534000, 1326.986073
0.535000, 1327.738544
0.536000, 1328.321606
0.537000, 1328.704170
0.538000, 1328.839418
0.539000, 1328.675694
0.540000, 1328.165900
0.541000, 1327.273841
0.542000, 1325.978802
0.543000, 1324.269379
0.544000, 1322.142050
0.545000, 1319.603531
0.546000, 1316.671705
0.547000, 1313.374176
0.548000, 1309.747822
0.549000, 1305.842116
0.550000, 1301.715665
0.551000, 1297.431737
0.552000, 1293.053594
0.553000, 1288.640804
0.554000, 1284.249975
0.555000, 1279.930723
0.556000, 1275.725579
0.557000, 1271.677948
0.558000, 1267.823738
0.559000, 1264.185151
0.560000, 1260.774040
0.561000, 1257.596948
0.562000, 1254.659957
0.563000, 1251.966589
0.564000, 1249.523508
0.565000, 1247.341660
0.566000, 1245.434517
0.567000, 1243.822939
0.568000, 1242.541439
0.569000, 1241.643864
0.570000, 1241.198523
0.571000, 1241.279519
0.572000, 1241.963139
0.573000, 1243.323291
0.574000, 1245.426008
0.575000, 1248.325329
0.576000, 1252.059299
0.577000, 1256.644333
0.578000, 1262.062730
0.579000, 1268.252452
0.580000, 1275.108591
0.581000, 1282.494744
0.582000, 1290.254037
0.583000, 1298.213369
0.584000, 1306.188385
0.585000, 1313.989308
0.586000, 1321.423822
0.587000, 1328.296932
0.588000, 1334.417330
0.589000, 1339.614105
0.590000, 1343.747926
0.591000, 1346.715558
0.592000, 1348.459878
0.593000, 1348.970673
0.594000, 1348.277327
0.595000, 1346.445540
0.596000, 1343.577118
0.597000, 1339.812061
0.598000, 1335.332229
0.599000, 1330.353815
0.600000, 1325.113101
0.601000, 1319.852131
0.602000, 1314.799633
0.603000, 1310.159240
0.604000, 1306.095078
0.605000, 1302.719879
0.606000, 1300.096265
0.607000, 1298.234247
0.608000, 1297.095303
0.609000, 1296.607062
0.610000, 1296.671865
0.611000, 1297.163360
0.612000, 1297.926674
0.613000, 1298.801639
0.614000, 1299.645878
0.615000, 1300.338359
0.616000, 1300.779377
0.617000, 1300.888753
0.618000, 1300.611154
0.619000, 1299.930573
0.620000, 1298.878014
0.621000, 1297.535551
0.622000, 1296.031874
0.623000, 1294.522068
0.624000, 1293.178861
0.625000, 1292.190937
0.626000, 1291.745428
0.627000, 1292.014603
0.628000, 1293.141065
0.629000, 1295.221235
0.630000, 1298.296185
0.631000, 1302.350846
0.632000, 1307.317018
0.633000, 1313.079627
0.634000, 1319.477440
0.635000, 1326.305113
0.636000, 1333.330505
0.637000, 1340.317622
0.638000, 1347.048754
0.639000, 1353.338706
0.640000, 1359.040428
0.641000, 1364.049214
0.642000, 1368.300587
0.643000, 1371.766669
0.644000, 1374.449856
0.645000, 1376.379141
0.646000, 1377.612828
0.647000, 1378.233236
0.648000, 1378.346555
0.649000, 1378.074785
0.650000, 1377.541198
0.651000, 1376.868111
0.652000, 1376.176196
0.653000, 1375.573529
0.654000, 1375.149996
0.655000, 1374.984688
0.656000, 1375.147568
0.657000, 1375.688657
0.658000, 1376.638138
0.659000, 1378.013607
0.660000, 1379.814552
0.661000, 1382.019169
0.662000, 1384.584254
0.663000, 1387.444375
0.664000, 1390.511292
0.665000, 1393.671991
0.666000, 1396.792476
0.667000, 1399.724643
0.668000, 1402.310592
0.669000, 1404.397387
0.670000, 1405.849005
0.671000, 1406.552592
0.672000, 1406.429751
0.673000, 1405.437593
0.674000, 1403.565021
0.675000, 1400.829896
0.676000, 1397.282898
0.677000, 1393.003514
0.678000, 1388.095021
0.679000, 1382.687129
0.680000, 1376.929049
0.681000, 1370.978410
0.682000, 1364.990486
0.683000, 1359.111190
0.684000, 1353.478046
0.685000, 1348.221049
0.686000, 1343.456905
0.687000, 1339.277063
0.688000, 1335.739708
0.689000, 1332.872446
0.690000, 1330.675406
0.691000, 1329.118133
0.692000, 1328.138414
0.693000, 1327.648058
0.694000, 1327.537386
0.695000, 1327.682273
0.696000, 1327.951485
0.697000, 1328.210258
0.698000, 1328.333512
0.699000, 1328.221676
0.700000, 1327.809254
0.701000, 1327.066181
0.702000, 1325.987435
0.703000, 1324.581308
0.704000, 1322.876806
0.705000, 1320.939088
0.706000, 1318.875228
0.707000, 1316.829418
0.708000, 1314.965266
0.709000, 1313.453270
0.710000, 1312.457488
0.711000, 1312.120861
0.712000, 1312.555280
0.713000, 1313.832842
0.714000, 1315.979926
0.715000, 1318.972352
0.716000, 1322.731479
0.717000, 1327.123837
0.718000, 1331.972027
0.719000, 1337.072179
0.720000, 1342.208311
0.721000, 1347.159703
0.722000, 1351.706752
0.723000, 1355.644812
0.724000, 1358.799008
0.725000, 1361.027193
0.726000, 1362.225425
0.727000, 1362.332949
0.728000, 1361.331281
0.729000, 1359.242228
0.730000, 1356.119549
0.731000, 1352.038503
0.732000, 1347.091860
0.733000, 1341.392702
0.734000, 1335.076639
0.735000, 1328.297213
0.736000, 1321.218213
0.737000, 1314.007588
0.738000, 1306.832255
0.739000, 1299.857104
0.740000, 1293.240149
0.741000, 1287.122196
0.742000, 1281.625702
0.743000, 1276.859202
0.744000, 1272.915446
0.745000, 1269.864431
0.746000, 1267.744581
0.747000, 1266.562841
0.748000, 1266.302193
0.749000, 1266.925862
0.750000, 1268.377468
0.751000, 1270.584006
0.752000, 1273.460673
0.753000, 1276.912468
0.754000, 1280.837592
0.755000, 1285.132290
0.756000, 1289.693157
0.757000, 1294.420203
0.758000, 1299.217393
0.759000, 1303.989058
0.760000, 1308.632403
0.761000, 1313.036992
0.762000, 1317.094835
0.763000, 1320.704718
0.764000, 1323.772046
0.765000, 1326.210087
0.766000, 1327.946924
0.767000, 1328.932561
0.768000, 1329.138112
0.769000, 1328.556957
0.770000, 1327.202690
0.771000, 1325.105905
0.772000, 1322.319596
0.773000, 1318.917312
0.774000, 1314.989503
0.775000, 1310.648429
0.776000, 1306.027966
0.777000, 1301.276381
0.778000, 1296.549730
0.779000, 1292.002104
0.780000, 1287.776032
0.781000, 1283.997401
0.782000, 1280.768547
0.783000, 1278.160842
0.784000, 1276.215749
0.785000, 1274.949672
0.786000, 1274.359302
0.787000, 1274.426975
0.788000, 1275.127459
0.789000, 1276.435422
0.790000, 1278.320816
0.791000, 1280.746856
0.792000, 1283.679284
0.793000, 1287.092864
0.794000, 1290.972052
0.795000, 1295.307138
0.796000, 1300.087521
0.797000, 1305.293636
0.798000, 1310.888900
0.799000, 1316.825610
0.800000, 1323.050297
0.801000, 1329.495664
0.802000, 1336.080248
0.803000, 1342.710925
0.804000, 1349.276477
0.805000, 1355.646464
0.806000, 1361.682702
0.807000, 1367.252269
0.808000, 1372.229988
0.809000, 1376.497336
0.810000, 1379.952310
0.811000, 1382.507779
0.812000, 1384.090236
0.813000, 1384.648236
0.814000, 1384.160382
0.815000, 1382.641887
0.816000, 1380.140583
0.817000, 1376.728926
0.818000, 1372.503297
0.819000, 1367.577943
0.820000, 1362.080450
0.821000, 1356.159796
0.822000, 1349.985223
0.823000, 1343.730194
0.824000, 1337.557869
0.825000, 1331.621467
0.826000, 1326.064565
0.827000, 1321.013455
0.828000, 1316.569598
0.829000, 1312.808337
0.830000, 1309.782832
0.831000, 1307.523747
0.832000, 1306.039336
0.833000, 1305.317791
0.834000, 1305.326524
0.835000, 1306.010490
0.836000, 1307.289793
0.837000, 1309.062039
0.838000, 1311.210082
0.839000, 1313.608230
0.840000, 1316.121040
0.841000, 1318.612720
0.842000, 1320.958591
0.843000, 1323.044048
0.844000, 1324.761179
0.845000, 1325.999488
0.846000, 1326.657258
0.847000, 1326.662892
0.848000, 1325.973581
0.849000, 1324.564979
0.850000, 1322.432000
0.851000, 1319.597963
0.852000, 1316.114988
0.853000, 1312.055775
0.854000, 1307.508879
0.855000, 1302.579864
0.856000, 1297.388285
0.857000, 1292.061038
0.858000, 1286.724505
0.859000, 1281.491645
0.860000, 1276.459007
0.861000, 1271.708357
0.862000, 1267.298815
0.863000, 1263.261789
0.864000, 1259.605343
0.865000, 1256.323336
0.866000, 1253.399315
0.867000, 1250.808920
0.868000, 1248.524276
0.869000, 1246.513583
0.870000, 1244.739082
0.871000, 1243.164850
0.872000, 1241.765579
0.873000, 1240.523715
0.874000, 1239.429612
0.875000, 1238.487369
0.876000, 1237.713557
0.877000, 1237.135267
0.878000, 1236.787654
0.879000, 1236.710986
0.880000, 1236.948923
0.881000, 1237.548752
0.882000, 1238.564553
0.883000, 1240.059709
0.884000, 1242.103575
0.885000, 1244.762350
0.886000, 1248.092630
0.887000, 1252.134355
0.888000, 1256.906230
0.889000, 1262.405264
0.890000, 1268.610675
0.891000, 1275.483982
0.892000, 1282.968379
0.893000, 1290.991508
0.894000, 1299.467837
0.895000, 1308.306828
0.896000, 1317.409652
0.897000, 1326.663486
0.898000, 1335.944054
0.899000, 1345.118008
0.900000, 1354.049866
0.901000, 1362.606540
0.902000, 1370.657606
0.903000, 1378.078445
0.904000, 1384.743642
0.905000, 1390.519262
0.906000, 1395.277497
0.907000, 1398.907300
0.908000, 1401.316116
0.909000, 1402.438765
0.910000, 1402.244984
