time, pressure, 
0.000000, 557.715578
0.001000, 555.918017
0.002000, 485.570566
0.003000, 422.513319
0.004000, 365.496107
0.005000, 313.411425
0.006000, 265.442389
0.007000, 221.096609
0.008000, 180.160742
0.009000, 142.546904
0.010000, 108.291856
0.011000, 77.216320
0.012000, 49.408673
0.013000, 24.934750
0.014000, 3.945160
0.015000, -13.407210
0.016000, -27.167497
0.017000, -37.464948
0.018000, -44.442215
0.019000, -48.214512
0.020000, -48.987181
0.021000, -47.092179
0.022000, -42.877940
0.023000, -36.756902
0.024000, -29.085770
0.025000, -20.201110
0.026000, -10.341658
0.027000, 0.201713
0.028000, 11.094689
0.029000, 22.166984
0.030000, 33.253354
0.031000, 44.219925
0.032000, 54.910582
0.033000, 65.157486
0.034000, 74.818611
0.035000, 83.808086
0.036000, 92.044921
0.037000, 99.443758
0.038000, 105.987772
0.039000, 111.581957
0.040000, 116.096252
0.041000, 119.547657
0.042000, 121.887985
0.043000, 123.118689
0.044000, 123.263557
0.045000, 122.324134
0.046000, 120.338945
0.047000, 117.390793
0.048000, 113.621626
0.049000, 109.099814
0.050000, 103.939895
0.051000, 98.183537
0.052000, 91.947857
0.053000, 85.346845
0.054000, 78.541865
0.055000, 71.697231
0.056000, 64.946381
0.057000, 58.408232
0.058000, 52.155176
0.059000, 46.238523
0.060000, 40.757987
0.061000, 35.796991
0.062000, 31.473255
0.063000, 27.774054
0.064000, 24.701756
0.065000, 22.302079
0.066000, 20.536604
0.067000, 19.463080
0.068000, 18.966961
0.069000, 18.981051
0.070000, 19.440776
0.071000, 20.318969
0.072000, 21.657857
0.073000, 23.376248
0.074000, 25.446869
0.075000, 27.794010
0.076000, 30.363605
0.077000, 33.054801
0.078000, 35.792261
0.079000, 38.495186
0.080000, 41.128890
0.081000, 43.712677
0.082000, 46.283136
0.083000, 48.835727
0.084000, 51.331066
0.085000, 53.655852
0.086000, 55.786171
0.087000, 57.647385
0.088000, 59.285608
0.089000, 60.646855
0.090000, 61.772258
0.091000, 62.634366
0.092000, 63.222341
0.093000, 63.452604
0.094000, 63.374279
0.095000, 62.953306
0.096000, 62.196088
0.097000, 61.147042
0.098000, 59.811989
0.099000, 58.223244
0.100000, 56.430841
0.101000, 54.496937
0.102000, 52.414986
0.103000, 50.222816
0.104000, 47.912475
0.105000, 45.505696
0.106000, 43.066402
0.107000, 40.668850
0.108000, 38.312134
0.109000, 36.020983
0.110000, 33.818809
0.111000, 31.708449
0.112000, 29.714612
0.113000, 27.849816
0.114000, 26.156189
0.115000, 24.531797
0.116000, 23.011669
0.117000, 21.568181
0.118000, 20.249455
0.119000, 19.029228
0.120000, 17.926974
0.121000, 17.005696
0.122000, 16.297475
0.123000, 15.842124
0.124000, 15.583180
0.125000, 15.443659
0.126000, 15.373921
0.127000, 15.365220
0.128000, 15.393661
0.129000, 15.534221
0.130000, 15.776223
0.131000, 16.166431
0.132000, 16.772368
0.133000, 17.578272
0.134000, 18.551412
0.135000, 19.662935
0.136000, 20.809744
0.137000, 21.988138
0.138000, 23.158470
0.139000, 24.330530
0.140000, 25.478687
0.141000, 26.564366
0.142000, 27.593780
0.143000, 28.597320
0.144000, 29.579903
0.145000, 30.521365
0.146000, 31.404005
0.147000, 32.190701
0.148000, 32.930130
0.149000, 33.551561
0.150000, 34.044505
0.151000, 34.439318
0.152000, 34.727405
0.153000, 34.957788
0.154000, 35.214648
0.155000, 35.487607
0.156000, 35.750248
0.157000, 35.983686
0.158000, 36.153791
0.159000, 36.240978
0.160000, 36.208832
0.161000, 36.081999
0.162000, 35.917826
0.163000, 35.743687
0.164000, 35.520344
0.165000, 35.245324
0.166000, 34.974434
0.167000, 34.643945
0.168000, 34.289334
0.169000, 33.900318
0.170000, 33.431704
0.171000, 32.909960
0.172000, 32.372351
0.173000, 31.798366
0.174000, 31.179082
0.175000, 30.467556
0.176000, 29.703866
0.177000, 28.801901
0.178000, 27.777590
0.179000, 26.651133
0.180000, 25.486175
0.181000, 24.401777
0.182000, 23.419450
0.183000, 22.558578
0.184000, 21.794818
0.185000, 21.147047
0.186000, 20.641832
0.187000, 20.343166
0.188000, 20.249729
0.189000, 20.420642
0.190000, 20.857598
0.191000, 21.538052
0.192000, 22.460270
0.193000, 23.582264
0.194000, 24.862208
0.195000, 26.236399
0.196000, 27.670143
0.197000, 29.158363
0.198000, 30.670402
0.199000, 32.161664
0.200000, 33.544676
0.201000, 34.798211
0.202000, 35.942809
0.203000, 36.920605
0.204000, 37.748603
0.205000, 38.407185
0.206000, 38.941652
0.207000, 39.331437
0.208000, 39.635456
0.209000, 39.848768
0.210000, 39.944251
0.211000, 39.946111
0.212000, 39.865252
0.213000, 39.733532
0.214000, 39.528112
0.215000, 39.297944
0.216000, 39.000961
0.217000, 38.587470
0.218000, 38.018369
0.219000, 37.240234
0.220000, 36.353989
0.221000, 35.340450
0.222000, 34.207937
0.223000, 32.977327
0.224000, 31.679930
0.225000, 30.370955
0.226000, 29.145798
0.227000, 27.982654
0.228000, 26.935399
0.229000, 26.017638
0.230000, 25.199464
0.231000, 24.531093
0.232000, 24.049589
0.233000, 23.726767
0.234000, 23.602767
0.235000, 23.600734
0.236000, 23.693765
0.237000, 23.843638
0.238000, 24.036533
0.239000, 24.179645
0.240000, 24.195437
0.241000, 24.156365
0.242000, 24.088778
0.243000, 24.014017
0.244000, 24.010565
0.245000, 24.062759
0.246000, 24.231152
0.247000, 24.480403
0.248000, 24.814778
0.249000, 25.235677
0.250000, 25.787354
0.251000, 26.459001
0.252000, 27.203638
0.253000, 28.043269
0.254000, 28.996995
0.255000, 30.110964
0.256000, 31.323808
0.257000, 32.598915
0.258000, 33.959269
0.259000, 35.429542
0.260000, 37.004999
0.261000, 38.645530
0.262000, 40.313942
0.263000, 41.966733
0.264000, 43.541411
0.265000, 44.982861
0.266000, 46.252464
0.267000, 47.318819
0.268000, 48.231502
0.269000, 48.982747
0.270000, 49.525180
0.271000, 49.866935
0.272000, 49.992266
0.273000, 49.884803
0.274000, 49.528609
0.275000, 48.985854
0.276000, 48.234065
0.277000, 47.260521
0.278000, 46.084129
0.279000, 44.754663
0.280000, 43.341955
0.281000, 41.943784
0.282000, 40.550571
0.283000, 39.199572
0.284000, 37.958653
0.285000, 36.872246
0.286000, 35.946650
0.287000, 35.178267
0.288000, 34.610298
0.289000, 34.242149
0.290000, 34.027481
0.291000, 33.953174
0.292000, 34.053345
0.293000, 34.361219
0.294000, 34.886370
0.295000, 35.573571
0.296000, 36.389380
0.297000, 37.347358
0.298000, 38.366356
0.299000, 39.382775
0.300000, 40.336659
0.301000, 41.241011
0.302000, 42.106804
0.303000, 42.930664
0.304000, 43.716119
0.305000, 44.526547
0.306000, 45.343252
0.307000, 46.219725
0.308000, 47.108039
0.309000, 47.982000
0.310000, 48.799689
0.311000, 49.411591
0.312000, 49.703563
0.313000, 49.686965
0.314000, 49.382617
0.315000, 48.803732
0.316000, 47.947274
0.317000, 46.863912
0.318000, 45.547125
0.319000, 44.059091
0.320000, 42.491731
0.321000, 40.945886
0.322000, 39.393640
0.323000, 37.877610
0.324000, 36.387655
0.325000, 34.980078
0.326000, 33.689558
0.327000, 32.463513
0.328000, 31.290193
0.329000, 30.191635
0.330000, 29.185466
0.331000, 28.292434
0.332000, 27.547504
0.333000, 26.901026
0.334000, 26.355289
0.335000, 25.901363
0.336000, 25.501949
0.337000, 25.185886
0.338000, 24.908970
0.339000, 24.538184
0.340000, 24.093506
0.341000, 23.573799
0.342000, 22.989216
0.343000, 22.341830
0.344000, 21.656354
0.345000, 20.991461
0.346000, 20.437420
0.347000, 19.988929
0.348000, 19.682810
0.349000, 19.512716
0.350000, 19.504429
0.351000, 19.676754
0.352000, 20.009336
0.353000, 20.487450
0.354000, 20.997554
0.355000, 21.499481
0.356000, 21.903147
0.357000, 22.144274
0.358000, 22.234122
0.359000, 22.271256
0.360000, 22.249793
0.361000, 22.198894
0.362000, 22.141032
0.363000, 22.213382
0.364000, 22.408908
0.365000, 22.690485
0.366000, 22.963764
0.367000, 23.198650
0.368000, 23.356310
0.369000, 23.484468
0.370000, 23.662962
0.371000, 23.891954
0.372000, 24.152858
0.373000, 24.458834
0.374000, 24.777781
0.375000, 25.117091
0.376000, 25.436480
0.377000, 25.751088
0.378000, 26.112683
0.379000, 26.511883
0.380000, 26.989172
0.381000, 27.493727
0.382000, 28.019602
0.383000, 28.496363
0.384000, 28.877641
0.385000, 29.160996
0.386000, 29.319657
0.387000, 29.355287
0.388000, 29.265858
0.389000, 29.107175
0.390000, 28.904102
0.391000, 28.632064
0.392000, 28.341264
0.393000, 28.007901
0.394000, 27.671731
0.395000, 27.310854
0.396000, 26.937544
0.397000, 26.475627
0.398000, 25.889646
0.399000, 25.194524
0.400000, 24.424964
0.401000, 23.570229
0.402000, 22.672405
0.403000, 21.832356
0.404000, 21.096618
0.405000, 20.469408
0.406000, 20.007828
0.407000, 19.726088
0.408000, 19.547653
0.409000, 19.377698
0.410000, 19.197217
0.411000, 18.998214
0.412000, 18.769848
0.413000, 18.557485
0.414000, 18.368118
0.415000, 18.245620
0.416000, 18.232957
0.417000, 18.346830
0.418000, 18.625738
0.419000, 19.007820
0.420000, 19.467916
0.421000, 20.008079
0.422000, 20.626927
0.423000, 21.357093
0.424000, 22.262115
0.425000, 23.300117
0.426000, 24.381517
0.427000, 25.547960
0.428000, 26.712749
0.429000, 27.823063
0.430000, 28.802279
0.431000, 29.714280
0.432000, 30.589195
0.433000, 31.479987
0.434000, 32.358740
0.435000, 33.137404
0.436000, 33.759141
0.437000, 34.213525
0.438000, 34.471110
0.439000, 34.615835
0.440000, 34.626852
0.441000, 34.545021
0.442000, 34.178420
0.443000, 33.511347
0.444000, 32.509949
0.445000, 31.191015
0.446000, 29.592806
0.447000, 27.868639
0.448000, 26.102865
0.449000, 24.253137
0.450000, 22.318056
0.451000, 20.333171
0.452000, 18.268827
0.453000, 16.229083
0.454000, 14.335669
0.455000, 12.579628
0.456000, 11.031399
0.457000, 9.715388
0.458000, 8.630749
0.459000, 7.739881
0.460000, 6.952821
0.461000, 6.252272
0.462000, 5.739637
0.463000, 5.371472
0.464000, 5.091396
0.465000, 4.825005
0.466000, 4.623538
0.467000, 4.481955
0.468000, 4.362339
0.469000, 4.240650
0.470000, 4.142707
0.471000, 4.103022
0.472000, 4.110001
0.473000, 4.098967
0.474000, 4.098501
0.475000, 4.054537
0.476000, 3.958221
0.477000, 3.895434
0.478000, 3.929695
0.479000, 4.068470
0.480000, 4.332003
0.481000, 4.668689
0.482000, 5.024990
0.483000, 5.346633
0.484000, 5.705350
0.485000, 6.031406
0.486000, 6.354331
0.487000, 6.741550
0.488000, 7.247298
0.489000, 7.817367
0.490000, 8.496112
0.491000, 9.204887
0.492000, 9.939792
0.493000, 10.597559
0.494000, 11.292791
0.495000, 11.963234
0.496000, 12.716008
0.497000, 13.450082
0.498000, 14.192440
0.499000, 14.793132
0.500000, 15.330137
0.501000, 15.819369
0.502000, 16.226366
0.503000, 16.441002
0.504000, 16.526291
0.505000, 16.422957
0.506000, 16.164688
0.507000, 15.876821
0.508000, 15.481832
0.509000, 14.961327
0.510000, 14.376090
0.511000, 13.857105
0.512000, 13.405714
0.513000, 13.059215
0.514000, 12.751705
0.515000, 12.505309
0.516000, 12.226705
0.517000, 11.925910
0.518000, 11.676633
0.519000, 11.549863
0.520000, 11.505253
0.521000, 11.526548
0.522000, 11.727840
0.523000, 12.093725
0.524000, 12.603157
0.525000, 13.193373
0.526000, 13.790140
0.527000, 14.407592
0.528000, 15.060277
0.529000, 15.656983
0.530000, 16.218101
0.531000, 16.668845
0.532000, 17.066483
0.533000, 17.349887
0.534000, 17.484260
0.535000, 17.462956
0.536000, 17.242176
0.537000, 16.819083
0.538000, 16.166514
0.539000, 15.353868
0.540000, 14.432026
0.541000, 13.418267
0.542000, 12.270602
0.543000, 11.048926
0.544000, 9.661351
0.545000, 8.184005
0.546000, 6.691343
0.547000, 5.243573
0.548000, 3.874787
0.549000, 2.637094
0.550000, 1.443936
0.551000, 0.401631
0.552000, -0.454749
0.553000, -1.050659
0.554000, -1.408273
0.555000, -1.542652
0.556000, -1.525549
0.557000, -1.385300
0.558000, -1.135839
0.559000, -0.765175
0.560000, -0.249383
0.561000, 0.436876
0.562000, 1.286935
0.563000, 2.190377
0.564000, 3.076827
0.565000, 3.881901
0.566000, 4.642527
0.567000, 5.472138
0.568000, 6.457662
0.569000, 7.523100
0.570000, 8.634060
0.571000, 9.832207
0.572000, 11.109276
0.573000, 12.499200
0.574000, 13.902192
0.575000, 15.207336
0.576000, 16.405030
0.577000, 17.391140
0.578000, 18.157776
0.579000, 18.691297
0.580000, 18.918272
0.581000, 18.894324
0.582000, 18.647737
0.583000, 18.202761
0.584000, 17.567331
0.585000, 16.750787
0.586000, 15.915289
0.587000, 15.024990
0.588000, 14.172335
0.589000, 13.397381
0.590000, 12.626976
0.591000, 11.956988
0.592000, 11.430092
0.593000, 10.948303
0.594000, 10.490428
0.595000, 10.032098
0.596000, 9.586610
0.597000, 9.043697
0.598000, 8.515441
0.599000, 7.997857
0.600000, 7.438605
0.601000, 6.952384
0.602000, 6.404506
0.603000, 5.832217
0.604000, 5.280108
0.605000, 4.860793
0.606000, 4.643942
0.607000, 4.644102
0.608000, 4.872608
0.609000, 5.280275
0.610000, 5.904935
0.611000, 6.631756
0.612000, 7.477307
0.613000, 8.355304
0.614000, 9.257703
0.615000, 10.137664
0.616000, 11.023732
0.617000, 11.829628
0.618000, 12.616114
0.619000, 13.321672
0.620000, 13.893008
0.621000, 14.402469
0.622000, 14.854749
0.623000, 15.198222
0.624000, 15.336130
0.625000, 15.352294
0.626000, 15.194540
0.627000, 14.873850
0.628000, 14.389814
0.629000, 13.824965
0.630000, 13.261052
0.631000, 12.759425
0.632000, 12.233755
0.633000, 11.662678
0.634000, 11.002723
0.635000, 10.278730
0.636000, 9.475084
0.637000, 8.629683
0.638000, 7.825333
0.639000, 7.067795
0.640000, 6.370035
0.641000, 5.746998
0.642000, 5.177380
0.643000, 4.661006
0.644000, 4.292859
0.645000, 4.036824
0.646000, 3.930606
0.647000, 3.977802
0.648000, 4.175481
0.649000, 4.473995
0.650000, 4.938375
0.651000, 5.568280
0.652000, 6.337605
0.653000, 7.121758
0.654000, 7.824198
0.655000, 8.425920
0.656000, 8.959931
0.657000, 9.376277
0.658000, 9.671853
0.659000, 9.879652
0.660000, 10.027121
0.661000, 10.101051
0.662000, 10.101571
0.663000, 10.107119
0.664000, 10.106835
0.665000, 10.033207
0.666000, 9.862969
0.667000, 9.646778
0.668000, 9.391684
0.669000, 9.070225
0.670000, 8.616661
0.671000, 8.086458
0.672000, 7.431292
0.673000, 6.759519
0.674000, 6.143007
0.675000, 5.605143
0.676000, 5.161528
0.677000, 4.823165
0.678000, 4.551050
0.679000, 4.331872
0.680000, 4.229422
0.681000, 4.262906
0.682000, 4.305324
0.683000, 4.388828
0.684000, 4.498765
0.685000, 4.556430
0.686000, 4.574356
0.687000, 4.618390
0.688000, 4.637818
0.689000, 4.662261
0.690000, 4.767289
0.691000, 4.955262
0.692000, 5.176048
0.693000, 5.457002
0.694000, 5.740423
0.695000, 6.058267
0.696000, 6.420522
0.697000, 6.836357
0.698000, 7.228713
0.699000, 7.589324
0.700000, 7.943013
0.701000, 8.271776
0.702000, 8.546431
0.703000, 8.906764
0.704000, 9.382569
0.705000, 9.956183
0.706000, 10.620105
0.707000, 11.311780
0.708000, 12.041745
0.709000, 12.884464
0.710000, 13.897402
0.711000, 14.924684
0.712000, 15.916429
0.713000, 16.847923
0.714000, 17.624446
0.715000, 18.172492
0.716000, 18.501919
0.717000, 18.589989
0.718000, 18.386696
0.719000, 17.870739
0.720000, 17.108600
0.721000, 16.105784
0.722000, 14.954540
0.723000, 13.701270
0.724000, 12.360097
0.725000, 10.978879
0.726000, 9.606586
0.727000, 8.192063
0.728000, 6.827400
0.729000, 5.464374
0.730000, 4.089894
0.731000, 2.708368
0.732000, 1.303452
0.733000, 0.023679
0.734000, -1.174205
0.735000, -2.292764
0.736000, -3.284052
0.737000, -4.040177
0.738000, -4.474423
0.739000, -4.575493
0.740000, -4.272666
0.741000, -3.627204
0.742000, -2.667521
0.743000, -1.465915
0.744000, -0.045344
0.745000, 1.533981
0.746000, 3.167424
0.747000, 4.874361
0.748000, 6.719988
0.749000, 8.745299
0.750000, 10.937308
0.751000, 13.208917
0.752000, 15.479427
0.753000, 17.607336
0.754000, 19.494922
0.755000, 21.105665
0.756000, 22.456457
0.757000, 23.503017
0.758000, 24.173923
0.759000, 24.461665
0.760000, 24.288532
0.761000, 23.703604
0.762000, 22.652227
0.763000, 21.119792
0.764000, 19.196763
0.765000, 17.004591
0.766000, 14.628006
0.767000, 12.129975
0.768000, 9.667097
0.769000, 7.261338
0.770000, 5.049281
0.771000, 2.944264
0.772000, 1.025358
0.773000, -0.751366
0.774000, -2.456224
0.775000, -3.970687
0.776000, -5.339331
0.777000, -6.477723
0.778000, -7.425039
0.779000, -8.143118
0.780000, -8.672762
0.781000, -8.939791
0.782000, -8.975559
0.783000, -8.767094
0.784000, -8.395309
0.785000, -7.767546
0.786000, -6.965373
0.787000, -5.952889
0.788000, -4.875524
0.789000, -3.796938
0.790000, -2.712163
0.791000, -1.687742
0.792000, -0.729779
0.793000, 0.109365
0.794000, 0.785100
0.795000, 1.361552
0.796000, 1.848619
0.797000, 2.276065
0.798000, 2.648952
0.799000, 2.922438
0.800000, 3.120342
0.801000, 3.284268
0.802000, 3.475926
0.803000, 3.657282
0.804000, 3.789647
0.805000, 3.938870
0.806000, 4.004137
0.807000, 3.962827
0.808000, 3.919729
0.809000, 3.835238
0.810000, 3.668201
0.811000, 3.516816
0.812000, 3.446825
0.813000, 3.394760
0.814000, 3.429536
0.815000, 3.623074
0.816000, 4.008437
0.817000, 4.658875
0.818000, 5.569623
0.819000, 6.672622
0.820000, 7.961474
0.821000, 9.390048
0.822000, 10.897317
0.823000, 12.364713
0.824000, 13.715564
0.825000, 14.870455
0.826000, 15.846709
0.827000, 16.608028
0.828000, 17.136802
0.829000, 17.551431
0.830000, 17.787114
0.831000, 17.774952
0.832000, 17.496639
0.833000, 17.013448
0.834000, 16.284388
0.835000, 15.380028
0.836000, 14.299575
0.837000, 13.127999
0.838000, 11.790887
0.839000, 10.346839
0.840000, 8.773140
0.841000, 7.054474
0.842000, 5.147117
0.843000, 3.132910
0.844000, 1.035265
0.845000, -1.059063
0.846000, -3.144928
0.847000, -5.196592
0.848000, -7.193206
0.849000, -9.109606
0.850000, -10.974531
0.851000, -12.711737
0.852000, -14.320024
0.853000, -15.748665
0.854000, -17.040218
0.855000, -18.140447
0.856000, -18.974873
0.857000, -19.494200
0.858000, -19.807141
0.859000, -19.918221
0.860000, -19.860948
0.861000, -19.557901
0.862000, -18.941547
0.863000, -18.020464
0.864000, -16.777826
0.865000, -15.310683
0.866000, -13.664863
0.867000, -11.844637
0.868000, -9.851599
0.869000, -7.638719
0.870000, -5.269161
0.871000, -2.865984
0.872000, -0.517611
0.873000, 1.644073
0.874000, 3.572177
0.875000, 5.123266
0.876000, 6.351615
0.877000, 7.185920
0.878000, 7.703062
0.879000, 7.877908
0.880000, 7.776589
0.881000, 7.435522
0.882000, 6.941318
0.883000, 6.312365
0.884000, 5.670671
0.885000, 5.087050
0.886000, 4.473287
0.887000, 3.803561
0.888000, 3.066999
0.889000, 2.425085
0.890000, 1.785877
0.891000, 1.141684
0.892000, 0.588433
0.893000, 0.213974
0.894000, 0.001168
0.895000, -0.073860
0.896000, 0.013538
0.897000, 0.193176
0.898000, 0.394644
0.899000, 0.634129
0.900000, 0.977720
0.901000, 1.366685
0.902000, 1.800422
0.903000, 2.299149
0.904000, 2.780033
0.905000, 3.290535
0.906000, 3.912413
0.907000, 4.625882
0.908000, 5.357537
0.909000, 6.045197
0.910000, 6.665283
0.911000, 7.217246
0.912000, 7.685286
0.913000, 8.047500
0.914000, 8.314598
0.915000, 8.500675
0.916000, 8.560702
0.917000, 8.541128
0.918000, 8.429139
0.919000, 8.290581
0.920000, 8.127604
0.921000, 7.912339
0.922000, 7.647585
0.923000, 7.298758
0.924000, 6.919772
0.925000, 6.437627
0.926000, 5.892782
0.927000, 5.259627
0.928000, 4.484064
0.929000, 3.579689
0.930000, 2.631135
0.931000, 1.726658
0.932000, 0.812286
0.933000, -0.114054
0.934000, -1.041789
0.935000, -1.991642
0.936000, -3.007681
0.937000, -3.946187
0.938000, -4.942802
0.939000, -5.857761
0.940000, -6.710450
0.941000, -7.508129
0.942000, -8.194579
0.943000, -8.768935
0.944000, -9.211959
0.945000, -9.466021
0.946000, -9.557639
0.947000, -9.505320
0.948000, -9.403490
0.949000, -9.225251
0.950000, -8.924263
0.951000, -8.518298
0.952000, -7.952043
0.953000, -7.237228
0.954000, -6.350300
0.955000, -5.256587
0.956000, -4.043275
0.957000, -2.743890
0.958000, -1.424313
0.959000, -0.222291
0.960000, 0.841239
0.961000, 1.783456
0.962000, 2.679190
0.963000, 3.557515
0.964000, 4.377157
0.965000, 5.144065
0.966000, 5.828510
0.967000, 6.380444
0.968000, 6.771215
0.969000, 7.147269
0.970000, 7.590608
0.971000, 8.061044
0.972000, 8.539492
0.973000, 9.063730
0.974000, 9.649897
0.975000, 10.282788
0.976000, 10.861161
0.977000, 11.421425
0.978000, 11.829692
0.979000, 12.127841
0.980000, 12.334276
0.981000, 12.431508
0.982000, 12.482652
0.983000, 12.392688
0.984000, 12.157759
0.985000, 11.778184
0.986000, 11.297490
0.987000, 10.794727
0.988000, 10.221727
0.989000, 9.662241
0.990000, 9.075584
0.991000, 8.664161
0.992000, 8.307412
0.993000, 8.067967
0.994000, 7.977105
0.995000, 8.015012
0.996000, 8.202586
0.997000, 8.433137
0.998000, 8.643879
0.999000, 8.746824
1.000000, 8.724174
1.001000, 8.540882
1.002000, 7.416654
1.003000, 6.267408
1.004000, 5.106486
1.005000, 3.935311
1.006000, 2.692941
1.007000, 1.444101
1.008000, 0.105456
1.009000, -1.263937
